session,subjectName,setName,repetition,MVC,IMNF_GaMe,IMNF_GaLa,IMNF_SeTe,IMNF_BiFe,IMNF_VaMe,IMNF_ReFe,IMNF_VaLa,IMNF_GlMa,IMNF_ExLo,meanRMS_GaMe,meanRMS_GaLa,meanRMS_SeTe,meanRMS_BiFe,meanRMS_VaMe,meanRMS_ReFe,meanRMS_VaLa,meanRMS_GlMa,meanRMS_ExLo,aucRMS_GaMe,aucRMS_GaLa,aucRMS_SeTe,aucRMS_BiFe,aucRMS_VaMe,aucRMS_ReFe,aucRMS_VaLa,aucRMS_GlMa,aucRMS_ExLo,maxRMS_GaMe,maxRMS_GaLa,maxRMS_SeTe,maxRMS_BiFe,maxRMS_VaMe,maxRMS_ReFe,maxRMS_VaLa,maxRMS_GlMa,maxRMS_ExLo,t2maxRMS_GaMe,t2maxRMS_GaLa,t2maxRMS_SeTe,t2maxRMS_BiFe,t2maxRMS_VaMe,t2maxRMS_ReFe,t2maxRMS_VaLa,t2maxRMS_GlMa,t2maxRMS_ExLo
1,01PrAy,01,1,0.806815554811439,67.5317716644393,58.5248045009351,66.0262860874455,67.4002716422019,57.9220129800876,54.5634147331732,55.1699879975603,66.3712360645196,57.7289034883842,0.0536386594885442,0.129082005968696,0.333622116716511,0.381170089639431,0.643682176183634,0.548896506608329,0.587695880168175,0.58563982555756,0.0767712700664235,0.0945918437874123,0.227559268854544,0.588538539613901,0.672390566059093,1.13551193391204,0.968373334454588,1.03669057967367,1.03303417223835,0.135442477845875,0.182661451529201,0.766943320166947,0.963009649840875,0.791554364864135,1.01052776651056,0.966290455528721,0.954384141179717,1.06303018558263,0.149545592965754,1.88428100881584,1.88893757871282,1.50663319017018,1.51641198695385,1.353897697549,1.20675008880421,1.3902189427455,1.58439790744987,1.29289663189847
1,01PrAy,01,2,0.77084069287583,63.6699989466143,58.1436839323323,65.7223644944117,70.5268071509161,59.5294783529004,56.9081584130703,54.2570325374617,64.2456131824714,57.0460954711803,0.070514011663474,0.170881786950427,0.367389830279936,0.379030998545055,0.642254281408362,0.520025290973129,0.638582363551511,0.645160178224117,0.0840407570047172,0.125641829972198,0.304452231731415,0.655127291693329,0.675813726823428,1.14529197727119,0.927372506950084,1.13868588261658,1.15032099789217,0.149873089802337,0.449286433087686,0.867631398161425,1.09989410359377,0.767891959108568,1.06283998462008,0.920251605699983,1.01287307806566,1.46092818865615,0.168399514400471,1.90802537339915,1.90802537339915,1.59137930777099,1.63654793772089,1.24725953938978,1.115478897371,1.21326665293264,1.64027318555181,1.48334712067432
1,01PrAy,01,3,0.720897855643188,64.0173597886288,60.1187192746994,65.1813587324619,71.2401174833217,59.6339745799314,58.3601806463518,57.0616012495655,65.7098368752031,55.8708002754526,0.0734843240718176,0.148458929159292,0.324446194610931,0.387182334890875,0.602489992488413,0.568551730083219,0.570500585033942,0.651027920940733,0.0838992901036672,0.157482804134926,0.318188660071365,0.695737056417646,0.830171777749449,1.29197906077611,1.21927482707329,1.22341270562434,1.39600847583338,0.179927533818267,0.461857094140279,0.902205364050515,1.05517060389169,0.948762843449856,0.953798097086475,1.14558279770485,1.03706222854753,1.69355967562533,0.198894499653596,2.26883034845762,2.26929598834443,1.99410281524264,2.23763247604168,1.39668684047176,1.37666432533914,1.45023542745434,1.99270589558223,1.42695343311408
1,01PrAy,01,4,0.683797814644591,57.1211145647602,60.4454935484954,60.7697161094796,67.608764396973,61.929327438416,58.372250324139,58.067734552303,62.5125720056718,53.4314731342681,0.122995346665834,0.148515756750948,0.570251769466279,0.538813090085965,0.578097840221913,0.502421814870748,0.585989483700595,0.712145039897928,0.077036562532766,0.267427751039147,0.322941799372861,1.2406745010201,1.17211426530152,1.25761825755849,1.09310949606912,1.27485802214708,1.54925334639937,0.167611983829268,0.768953544365131,0.917145776874694,2.30307154092635,1.74542149359694,1.23967669673878,1.14628003767816,1.05482231830885,1.69460318556402,0.159151910507418,2.30048810735466,2.30048810735466,1.98571633110292,1.99363218938144,2.22086388584719,1.34453181054278,1.48189523361122,1.99363218938144,1.80830797791961
1,01PrAy,01,5,0.64262158188994,60.1735296568213,61.5058144943966,63.6929373522107,66.5077223285721,52.908023931066,51.3566579387819,54.2497946227944,63.0753669554057,46.3816127234889,0.0801276655006375,0.141820457667149,0.400571737406637,0.456719765608221,0.692915028673958,0.652026642045577,0.675153864241958,0.791140287024579,0.0940193996413471,0.146966023738818,0.260021915727826,0.735177075548262,0.838144896687652,1.27172457238197,1.19674524085516,1.23913057746283,1.45193650568327,0.172570340153151,0.466957130860914,0.793853514457193,1.09900531723638,0.930818859195463,1.04131831137001,1.03700687464501,1.0491505836874,1.72272341194081,0.171710478074459,1.94154148400249,1.96016761647883,1.67332517634319,1.71802789428641,1.29242076720204,1.02001357973557,1.13363298784124,1.70592090817678,1.61651547229035
1,01PrAy,01,6,0.800950037418138,59.2033203551048,55.4397128744202,62.2143758638662,67.8737516293835,55.7918568610412,51.2151498735098,52.838636880971,66.517648037064,45.9425663244708,0.114256555010884,0.218179631993001,0.519424554661217,0.488037557021163,0.694347353983804,0.633998954262873,0.708265956183941,0.690910392051129,0.105901716511355,0.204236357139974,0.390123745919807,0.929419767113006,0.873231909108367,1.24235751548541,1.13440398770811,1.2672671591554,1.23613701328601,0.189493925878519,0.894895818048978,0.907017282216339,1.37471782209126,1.1849729919048,1.11734656877653,1.15739652631536,1.3049225354058,1.80541223887519,0.196174993175707,1.91407759992141,1.91407759992141,1.44888759327466,1.62118018832901,1.58159945703274,1.06937822849277,1.27519803123338,1.59463781557739,1.26169401702641
1,01PrAy,01,7,0.770223019333962,60.4614442469287,58.5671533375383,66.1395259549485,70.7478218451538,54.0202353381171,49.6075180603299,52.0087591378571,61.7051903543962,47.6335735184156,0.065586258903698,0.16208792003531,0.39935965180418,0.400578343952774,0.726963790969886,0.716102191067112,0.667918316021034,0.757650888176585,0.0982480463953955,0.108836000354798,0.268906512605226,0.662893792092299,0.664850356481059,1.20663307588353,1.18868509121298,1.10859061605202,1.2574540207249,0.163088205654337,0.117005402241815,0.576676458826846,1.09262084381015,0.732196072084445,1.10286944998186,1.35142211605371,1.06549922818853,1.50357245040574,0.171387245102823,1.73901798489445,1.7841872832034,1.42097024525517,1.35717443217964,1.49314798997565,1.11549540308332,1.04005801827869,1.50618655031225,1.08988394527928
1,01PrAy,01,8,0.824576572184551,52.8172796049248,54.4818372136394,62.01514977014,65.8177911739866,52.2990488896368,50.6697368556216,51.6055990581954,65.1950274896146,43.1571465609557,0.141526136676513,0.204153232419427,0.555461359677338,0.528164367532903,0.769577855211503,0.674122526865843,0.689679983148466,0.652522021166335,0.112291835685835,0.215111876651762,0.310269936583854,0.844691561410688,0.803076221543655,1.17018626429372,1.02513615763264,1.04872813809046,0.99210881664573,0.170769936565516,0.555540133281568,0.557869932581491,1.4134252632279,0.901493564773269,1.07552429767788,1.05444487412665,1.06846981062372,1.27719705759819,0.189903645947832,1.6268244220184,1.59609008343154,1.25614967178893,1.37443030816869,0.92878239865914,0.826800275166359,1.20120039976999,1.36604821582682,1.1406630661898
1,01PrAy,01,9,0.700025225171572,59.7797910744618,60.2494598434522,67.8916556809482,68.8577126852938,55.193228335775,50.6780511641566,52.7201425407746,65.080486344629,48.2462571173251,0.0827773488020853,0.136881619089528,0.256615507893765,0.346711005438919,0.711615190206852,0.693709411497234,0.698164234243276,0.623995946588039,0.0830966271673062,0.150694258421264,0.24904648344003,0.4671575563608,0.631172979610712,1.29547877347952,1.26296276106781,1.27099248242428,1.13590183650998,0.151280464984724,0.212122631538039,0.420325972758618,0.673751953528158,0.537979309078767,1.0734295563444,1.33768194653037,1.17787323324094,1.18331878303257,0.161003755005287,1.12339042019651,0.260533446673552,1.46192092195106,1.3357286716409,1.0987107550067,1.15878012877057,1.13689438794187,1.60953325902973,1.34783567720572
1,01PrAy,01,10,0.737039821890838,56.4081183070528,58.0022164851629,59.6433843721991,68.4907922444999,69.1323330010516,70.241546065108,64.7454266202232,69.2435716766472,52.9816190339442,0.097049906308604,0.0847477751270599,0.392459786805743,0.397751840465396,0.450414935806433,0.364857640503031,0.450742033116383,0.520822720748925,0.0584189354237242,0.273949246049319,0.239216907929398,1.10815367562949,1.12301383040155,1.27174616086324,1.03024332757338,1.27275643481802,1.47051481394441,0.164962484254087,0.431149941502379,0.450182120883703,1.42870806902817,1.04818077235422,1.10772885027648,1.25310781298165,1.23767592144004,1.60053836044839,0.153313683684134,2.91920380835024,2.94853786049572,2.6468161812851,2.6877907303137,2.1220625817938,2.14953415443797,2.36465053683813,2.64169436265652,2.13975613705615
1,01PrAy,01,11,0.799553238274743,56.1297740996933,47.5827129145007,60.7957039887717,63.4313568122974,54.59088690922,49.7202240024587,50.2509061622787,62.5825338456813,40.623134177142,0.086179219075342,0.185846667202374,0.633622858199013,0.57761539096436,0.70634415468452,0.622223496840488,0.707416787681638,0.845909683501285,0.110100038482325,0.131063488052837,0.282542501410896,0.963789741060125,0.878503087259475,1.07442753804527,0.946536187813261,1.0760285937875,1.28658467963974,0.167485800805299,0.149324243900946,0.428459886130321,1.60391998025499,1.10834665658817,1.02021997828627,1.09984839183396,1.01387748353153,2.11292802070355,0.173171117984219,1.64591685188259,1.64591685188259,1.12715850614848,1.31808392962333,0.777904682718877,0.842167386229924,0.863122615635701,1.33531378491253,0.98233458736634
1,01PrAy,01,12,0.688578228162814,57.8590302065729,56.7948003933581,61.6790819937743,66.980436592902,59.7930176017307,55.9997117789034,54.3575707350449,64.523980461025,46.2023915180736,0.106506497364442,0.101145135296197,0.338191402305116,0.439456062736243,0.62990951413917,0.542095278550967,0.661061520852083,0.839344737734645,0.0846584837817335,0.201564426262315,0.19141290654797,0.640321861906551,0.831965383909742,1.19282038196637,1.02658206991766,1.25178833433133,1.58927938594297,0.160316089720431,0.467603473826356,0.551219699332616,0.684202664304331,0.942866835693067,1.08814246204394,1.01895380081807,1.12659501110459,2.06853566536378,0.17404516655944,2.01836204305265,2.01836204305265,1.65562031239443,2.01836204305265,1.3617948540564,1.37483306773859,1.15877124100508,1.28170297000863,1.20533628987006
1,01PrAy,01,13,0.728012960461588,53.3846439614882,52.211325666329,61.9003414094713,63.5740514157632,54.7537855333919,50.8614171863054,52.5285465548502,62.3250042282784,43.9349767473294,0.101290548607745,0.120538794862207,0.459050612220783,0.485365856537867,0.799321313418972,0.678949863055368,0.810279333816089,0.801921026045232,0.0932744840504627,0.164526042665739,0.195798293572377,0.74590337926065,0.788630548964835,1.29890942133302,1.10332606611512,1.31668663514562,1.30294840827054,0.151572957215912,0.205094576733398,0.286214787783032,0.917891638234952,0.886842540138849,1.21113636089028,1.14831268283216,1.28463367214484,1.37311573169945,0.160606822953311,1.7497361771391,0.191155475905682,1.20071716107869,1.42470201835185,1.45590157227555,0.886393296921963,0.974403978885845,1.45357324735587,0.967419004126807
1,01PrAy,01,14,0.736856106501994,53.0504459924853,51.2580235574606,62.7143519478985,69.6225265148543,59.2632028049905,56.0761404301862,54.1528917488726,62.6975492162665,44.925191391561,0.106589017585971,0.146749872970731,0.335144988740246,0.387008913986502,0.63204484613192,0.525454015144324,0.662265467774788,0.818587450323785,0.0885282077138428,0.189982123337265,0.261524510876668,0.59760651419186,0.690050029727607,1.12710210814934,0.937078839565187,1.18101369312492,1.45965046595041,0.157872222790315,0.338157637353295,0.81091773252773,0.795199220489294,0.741994615835466,1.03142687008421,0.970494539284642,1.2984351046034,2.33528401981271,0.15888895495651,1.90802537339915,1.90755971742029,1.52153091094124,1.55459248544065,1.17415155070798,1.06798198752677,1.07356985927315,1.54388239792676,1.23003026817178
1,01PrAy,01,15,0.646736816841286,59.6541712991745,51.5643868722225,62.237787774372,63.9145050979948,52.0523359048267,48.9288564590783,48.7265522169573,59.4733526551052,40.5678481545821,0.121124285213997,0.109251777167602,0.488557538423194,0.578536218914658,0.7023056783367,0.570468735222336,0.723662717018801,0.717932044806479,0.103573225801706,0.210582562322643,0.189874239639894,0.849603240852238,1.00595321159661,1.22133899680856,0.992118535073559,1.25847681262701,1.24831135991503,0.180122163542729,0.336210470642707,0.355349774758536,1.30766387598194,1.19493400634011,1.13379341214206,0.936443772022488,1.22666890456923,1.46997721155527,0.161794631916477,0.904075687794388,0.149243501384549,1.5210730024107,1.53597406963162,1.27148012646025,0.879395795209736,0.955763764716962,1.50943154364435,0.903610029443734
1,01PrAy,02,1,0.804516564486092,58.9858847482067,52.6329418263126,66.1036453783916,61.0359758325194,58.4920294360471,53.7661471758072,53.9480275856247,63.9530215713998,50.7531866102129,0.0636826206648581,0.0708710616584469,0.321165123306197,0.447146606191134,0.687615384259001,0.588506071041322,0.718970761919818,0.690788369585119,0.0918512495302486,0.0893396044144383,0.099364595355307,0.450670419608223,0.627446162070493,0.964902205413246,0.825909891442574,1.00886568244201,0.969314805264135,0.128906758236368,0.14910027936219,0.272133794736542,0.801698124165598,0.803069939172663,0.979169889047773,1.02680509925447,1.06878490766478,1.43454410751001,0.136261166275348,0.125035211267606,0.128760655178745,1.25757016025389,1.2752660188318,0.786301505494794,0.845442927584127,0.928334054606971,1.27247193589844,1.22683524798699
1,01PrAy,02,2,0.812691977883368,57.2444491711657,48.4728553022955,60.9667438998829,67.2178042494239,59.4582256941904,56.4896811566722,52.3792485606633,59.7134585434916,47.9063738642466,0.0959086101400471,0.0874903557256697,0.530395638446977,0.527755138761309,0.579946098618199,0.419879937201608,0.640246110034683,0.735422249582331,0.0784128018706038,0.156318327555194,0.142662064747526,0.86500701027401,0.860590296574335,0.945882116713036,0.684854128345077,1.0441992613548,1.19938974777754,0.127895808491314,0.453732104050528,0.212160490176225,1.46815115331679,1.19641212325958,0.933753594266948,0.710908510010799,1.0060430209665,1.50256848200389,0.150593238339593,1.75578841859837,1.75578841859837,1.35252286482402,1.74833778481039,1.32970529884833,1.14111113109012,1.13319483269039,1.46847335314944,1.3427439079773
1,01PrAy,02,3,0.884668284536871,56.5451524624169,46.5607619200024,63.5707831168644,63.8098184261401,56.9627588228113,51.5127650656085,52.9875349185951,65.073919304698,45.7632927284518,0.0832425323740063,0.12545494008268,0.396104932856478,0.491992391086515,0.715597765293812,0.611003705781335,0.766875937684419,0.585561882382055,0.0892493007727556,0.123004922616841,0.18536236901015,0.585559152262985,0.727224950267314,1.05786410428844,0.903306216831712,1.13364718814069,0.865552079440653,0.131944405552352,0.262221226840661,0.300915057818149,0.923090564926696,0.836833115534195,1.06130377047534,0.997874733172297,1.33025909219249,1.248170970954,0.137295640047632,1.60308549698992,0.201870025546879,1.3190238693461,1.33951356052041,0.881755232694385,0.786757573613501,1.02238902211805,1.33206276372975,1.08106404684448
1,01PrAy,02,4,0.825329488726711,60.0553081307866,47.7550984532996,64.8605925785918,64.6114989101656,55.5388042498796,52.7672745840415,52.3177293856446,64.041720434112,44.0392814074109,0.0975375086081107,0.110357641892062,0.38375856076362,0.462273061276102,0.724182182177683,0.622547322555538,0.689412208093629,0.667181663517657,0.102115234710269,0.154454168047211,0.174817898850294,0.608028012141537,0.732380867281312,1.14741583412203,0.986447380138912,1.09230630837784,1.0569890043905,0.161807053917383,0.425694554266483,0.176865840191876,0.84922426103219,0.833458847540008,1.15553463000809,1.04814414402331,0.990337912673828,1.65614945125656,0.177681895982742,1.70923269808717,0.221890581838588,1.31714063112371,1.40142645549471,1.31807196619963,0.907353197717709,0.967424310114724,1.42284716224093,1.02283874713213
1,01PrAy,02,5,0.789597635264919,60.1583969238734,51.0580092179432,62.6170426037214,63.5045141278396,55.229526016031,52.1266458078771,51.8320136845589,60.8413976261079,41.9340708317578,0.0900180904749985,0.0971043809641157,0.442872744724224,0.523036356027014,0.745982589419064,0.564423925515965,0.734873241675289,0.730514485479533,0.106057111023356,0.143290476669824,0.154554907939669,0.705217353330507,0.832718706690325,1.18787878686104,0.898805541210083,1.17015024691519,1.16309638479083,0.168888416285314,0.280154247763676,0.204019334084283,1.13378588886815,1.00027343010634,1.21381113341031,1.01277084800232,1.16576509486154,1.53034219489847,0.165480823631674,1.71342183713587,0.202797991594692,1.3748819062763,1.69293248781287,0.965094919816303,0.979530597748417,0.964163585756167,1.45078563217742,1.15136173184358
1,01PrAy,02,6,0.724157482813625,56.8704128193881,47.5154205170264,58.6591358640597,59.5420191239594,54.841888694641,50.77740703154,49.1004212023335,62.2145135468968,41.3471752026508,0.135688044632312,0.111465023156172,0.530674497641055,0.610020623148326,0.732227323780312,0.562201210606368,0.818384622323156,0.609844052064574,0.112772491511507,0.219141839459726,0.179997575953588,0.857385996119555,0.985453113153887,1.18301555685821,0.908360460798969,1.32219976200957,0.985191940166685,0.182209845399915,0.459351984072315,0.339726999556682,1.08423262670537,0.977707695605158,1.05649295766098,0.836355462459694,1.4988718799961,0.99287899903377,0.178358702750678,1.72692073388985,0.164147110340077,1.42889477469085,1.48477464204066,0.895242041500133,0.995825802729797,1.01491809074098,1.43494842698708,1.13645680222683
1,01PrAy,02,7,0.686102010705582,61.9655412416861,47.6925021419272,60.6557110068965,59.790598811393,54.3925472285376,49.9776351242579,48.7723373034467,56.3213850770247,41.5820404121187,0.0794909571137807,0.0997191675448416,0.434835566016783,0.546375674857515,0.81445061864251,0.59813929874364,0.807706125324951,1.18750823978667,0.0988218686166988,0.139900642814346,0.175429520986687,0.765290674659218,0.961613588636379,1.43334307938226,1.05269870930713,1.4214718580962,2.08994685363643,0.173931706007615,0.246875500937792,0.262829749786077,1.02645194429646,0.986305978149744,1.17693910655144,0.902036142701956,1.27841766634365,2.8289649804737,0.160429448763498,0.874271419584656,0.213503832692178,1.53550466369129,1.6183916478117,0.988823094267918,1.30127908496901,1.23282747448755,1.00418978233519,0.929218970855489
1,01PrAy,02,8,0.673031795861902,57.5304828879731,50.4544432039832,57.3084724157385,57.4427608652667,55.1313656271517,51.9144848183411,50.635986402665,61.5740047913505,39.6690400884894,0.0799279247697712,0.104323480422219,0.462646734977134,0.628570184859344,0.715105627403934,0.527106922815959,0.768190324473536,0.628598636066773,0.106143261617375,0.133211876923746,0.173842998671833,0.771541745106496,1.04812313856913,1.19266217579279,0.879144894119478,1.28113875603865,1.04818286086569,0.177029420496446,0.438401814677798,0.590321935628835,1.10798817046429,1.44542164287589,1.15563911310726,0.910456222729635,1.10895713497281,1.14540736705428,0.14859021054196,1.79256741082209,1.79256741082209,1.46380975605124,1.67149518668551,0.773232416072238,0.760659531258055,1.19651953814972,1.4465802472318,1.4815049272712
1,01PrAy,02,9,0.632632440717005,58.3277360248672,45.5015009766154,59.9643828790599,57.5932422905125,54.7766012491323,51.8132556626977,51.7194783959186,58.5976853005043,39.345956643936,0.108158168160314,0.135938044679863,0.400091064286972,0.640138470180086,0.798244945232399,0.651544339892802,0.762781677279509,0.790292145573611,0.0967677664799262,0.18232082174772,0.229210323471112,0.674789057055926,1.0796053081655,1.34660567384765,1.09914820773398,1.28670586291853,1.33298301634461,0.163239844007629,0.463038573498192,0.35046622235413,0.929953431898836,1.35131827535788,1.18364948618961,0.996070350890719,1.10510373004932,1.55189989698551,0.135296145710184,1.81165523333884,1.8088612656226,1.51456333284528,1.80792994305052,0.816537065071239,0.681029630833583,1.3404060118663,1.54157168743561,0.856583935670684
1,01PrAy,03,1,0.692136442610146,56.7136723113418,55.1804443387048,68.0898808339871,67.4451213813263,56.5617516795068,57.5457571495839,51.2879839099869,68.0417477703327,49.6500786907041,0.060319456653001,0.0565553489594759,0.233271987223862,0.322169565644464,0.597703472971926,0.462084405121206,0.64068266288872,0.477119363942069,0.06787679839304,0.134893537240984,0.126484740356066,0.521834659603226,0.720705835384331,1.33712165195748,1.03378027970856,1.43322717326465,1.06729568852087,0.151856826357952,0.237620666837886,0.208562203210943,0.706408463824837,0.659930709776955,0.994487960419753,0.939879336709026,1.10969186651019,1.16060270665096,0.143126048389099,2.36194121439258,2.36194121439258,2.10490985897716,2.09885658430252,1.52100167113127,1.49492602637898,1.63135752481506,2.08395621587264,1.50097930105362
1,01PrAy,03,2,0.810394636605672,46.5589457480095,42.9288379434669,60.4655685721377,60.0157241640755,57.7268092938687,52.2924024809639,53.2568179429153,62.1109000382252,46.0546600110505,0.16977166099111,0.152477512003941,0.51651212463241,0.537345071363513,0.701029060036621,0.614398417573083,0.748450861300086,0.636780932279826,0.106809692690921,0.230860353893206,0.207372938559715,0.702705859977578,0.730961677031224,0.953705562742501,0.835930234636237,1.01820502815956,0.866207207005193,0.145327349644689,0.586694415643649,0.260389679405041,1.21958021797814,0.938713826556463,0.893985623830936,0.963698541269582,1.04165644680756,1.18975579012831,0.171345858537323,1.47645105188842,1.48529904746826,1.19517792924512,1.22498170382984,1.11368323311502,0.693636285061601,1.1583888949921,1.21147686847114,0.87990987621611
1,01PrAy,03,3,0.867866361524507,40.8967102547529,44.8538246234349,61.627679119743,60.7210992268968,55.2756958810861,50.2655423785559,52.2101461160916,63.3105115264549,44.9993602903746,0.272424454056426,0.136559417448285,0.391168456786353,0.472590692368038,0.706017709865141,0.643663939814343,0.827178954514414,0.687724847432905,0.093498125908217,0.398572824589999,0.199754649454459,0.572435737074732,0.691518919725355,1.03313314794033,0.941983029370212,1.21043469564197,1.00626652806402,0.13683050626423,0.641591489466697,0.290928116914922,0.829457352881942,0.883578221018415,0.852887086062934,0.98806502308361,1.27791840229723,1.48967787185846,0.145104852472504,0.344367321093144,1.58818762486567,1.32508074668092,1.32787480202448,1.22822016143768,0.82867024730933,1.14579552880281,1.31669858065026,1.1900347384091
1,01PrAy,03,4,0.814882694727059,44.9495556814071,46.0732211908444,61.8112182972616,60.6181117097849,55.8985550847283,52.564828156235,50.9698018204735,61.0686777715268,44.7122489063698,0.229125102530515,0.10842015841861,0.399472403203961,0.606483649849993,0.656929113445063,0.618818139895546,0.755367250670979,0.632698511019605,0.0973031312974454,0.375273094307915,0.177589389499541,0.654471168398713,0.993556691057631,1.07634864122037,1.01398742085709,1.23763155751319,1.03649526316533,0.159436827977169,0.680254745146716,0.28536760524455,1.0262468131302,1.2609348515022,0.962650134872528,1.38028866454309,1.32010452611733,1.18949732354018,0.163838459305457,1.76323733028401,1.76323733028401,1.37859873664488,1.48942680599853,0.965088965274956,0.836099993800329,1.04937417768256,1.48523582858599,1.35950650621
1,01PrAy,03,5,0.785059246869392,48.1702848798289,46.1122859383911,58.7513111975371,60.9034855737569,53.6212529556664,50.3512164114035,49.2049141965573,60.7403440367886,41.1714603758997,0.235760033258202,0.0959163336209078,0.582911404833381,0.568832324968901,0.806034563418208,0.637366592822482,0.90818284859856,0.704338560900545,0.0922617355254946,0.33585401410748,0.136594141134473,0.830535683717069,0.81042442512163,1.14838326783057,0.908143455209507,1.29390920449762,1.00335577028786,0.131454075953319,0.552131830440442,0.253730321711321,1.23156476661146,0.997765862409631,1.11922737705004,0.948335954174578,1.40263221455932,1.25782179686551,0.14535486345964,0.24424853654899,1.54954624474121,1.21798293106555,1.28364364346481,0.807254219461723,0.754166834968711,0.824018656670043,1.24964909023682,1.07781360885155
1,01PrAy,03,6,0.817914164374922,55.6179819502692,50.12266227962,56.5426103878691,61.4160538057599,58.3729191814443,56.8139421520674,52.5226843973091,63.3474726207549,44.3672460105938,0.136351089297816,0.103669025586624,0.578853909455613,0.527148326901043,0.645309900980381,0.516966094012487,0.704265571209409,0.626916563446582,0.0884699239516201,0.230246986973605,0.17504387490043,0.977781175343581,0.890306213758803,1.09007636980502,0.873335314431866,1.18963636797283,1.05883247103963,0.149449604667859,0.34742313947446,0.373217926054274,1.26795182283955,1.12753757121322,1.04682925784227,0.996564686738101,1.07329531913322,1.2173949379814,0.14089202528695,0.932020794984768,1.81398301616945,1.07404744623151,1.70874359590138,0.973930298631348,0.890576952489817,1.08755161962874,1.55041880434763,1.46520281359959
1,01PrAy,03,7,0.825135151954172,51.5491210046695,47.629987575651,58.6216416957029,62.4662007235397,57.9377117478465,53.5044474319801,51.5655198180054,64.4702892118311,46.003305286447,0.287112488520608,0.109630892168608,0.617727965921786,0.53557198135611,0.610133057188109,0.479007344642209,0.681919274855648,0.573095590777454,0.0879564336213524,0.494800595615322,0.188924735793949,1.06470223342319,0.923018588575483,1.05171309083066,0.825710406624445,1.17541694359545,0.987708096732826,0.151616477441735,1.2796979600053,0.247117776186559,1.59665507161704,1.00061693230245,1.19751739569141,0.839107333708063,1.17113859025162,1.2001413635857,0.157589072177909,1.05308827949307,1.84843419210601,1.12293715940638,1.53923648368973,1.31059781677349,0.875672124513249,1.28731485680238,1.54622137168107,1.22398520568098
1,01PrAy,03,8,0.733909469220503,50.3642008167829,44.5147698747972,57.3539583822102,56.8744447105116,56.8657438651893,49.7236988458,48.0614622451274,58.0888512689431,42.0685828273002,0.317787806066732,0.144633351550007,0.649758788771809,0.603378446483584,0.727807554845967,0.553455586585262,0.863035245573949,0.78140698262405,0.0957047510139287,0.495627889604943,0.225521927950702,1.01352065597101,0.94104443444635,1.13524129293965,0.863312336903354,1.34611790114749,1.21868009866517,0.149286744650116,1.13784687478983,0.237938008238013,1.35088035389607,0.962257214071344,1.07906248607045,0.789929648547989,1.20830620508921,1.63012569186282,0.138477229718612,0.794664404331645,1.2561425318984,0.797924088381057,0.735058753142398,0.822138884176689,0.660086020005923,1.42005807266883,1.37768218002647,1.24263812655083
1,01PrAy,03,9,0.754779660523037,46.6594402700525,46.164784054007,55.7059527105643,58.7822523902863,55.2375327020214,55.0013883237011,50.7346449934076,61.7599837535583,44.2868201095075,0.299987025627656,0.156602762690263,0.91449652886015,0.610286546787719,0.627740979298643,0.478880359694288,0.752624419897932,0.728816166859482,0.0847510556066716,0.493120137758347,0.257436189745012,1.5035328414613,1.00317659671443,1.03208586246463,0.787362324197008,1.23740071067629,1.19816941182004,0.139339723559384,1.03134007236892,0.339538329989562,3.19335758004318,1.10260473651429,1.01557109558308,0.85660757825663,1.23726725711603,1.53479359230583,0.148798616462995,0.86031390411721,0.437025493376997,0.961362952665754,1.6645153181418,1.15554476485351,0.939942417028735,0.960431625029361,1.44285934068047,1.09640545994261
1,01PrAy,03,10,0.708721314869578,49.0307154966063,48.0407064848372,55.4318043766152,56.8448545211384,54.8259473452791,53.4327155459514,48.1195838739885,58.2557213883793,40.1736974049739,0.284478329028143,0.152827093330424,0.5979701926136,0.63762007711165,0.600395791119885,0.491797142160608,0.706296971085532,0.616858671222765,0.0985078616358911,0.441919751182165,0.237378627430985,0.929074030519785,0.99060831206448,0.932864186032458,0.764171659734304,1.09739909045873,0.958294718459391,0.153058234669161,0.82826994179163,0.415447574339503,1.15566416481202,0.992888348127489,1.02850558422771,1.14753334757949,1.19152328222328,1.01069219168088,0.159611528812041,0.758342865495305,0.19814239439254,1.03727892716659,1.37908037836312,0.964168807496486,0.678713372096657,0.840300706654146,1.14903961965592,0.827727628749097
1,01PrAy,04,1,0.806673268846165,46.1775406843714,66.1551868769298,67.1187087357298,62.0581776526044,60.0604976610064,55.2738526425572,54.3906480342856,63.4615098985793,53.4792756543745,0.249282354653915,0.015163368650649,0.279860834897832,0.375654750574192,0.608126944470918,0.511751986623366,0.734917250120698,0.628580233199228,0.073906152729736,0.383900800905156,0.02338127130439,0.431556459411064,0.579251748078426,0.937741901731156,0.789203119178131,1.13326155025025,0.969228859587947,0.113975595746342,2.32762478928664,0.0276745804239546,0.639521798281194,0.579726850969921,0.865207799968407,0.841501718146488,1.09063995910955,1.08586594080266,0.126950350166634,1.6668669569333,1.42052735078224,1.38327372414314,1.02703591940673,1.05078510638916,1.03402097440156,1.19141754695176,1.39677816379981,0.972552490447043
1,01PrAy,04,2,0.775319724405292,48.7580107833618,64.2832493665372,64.9994491599767,61.9148462437778,59.8763737509557,59.2021322143041,51.8960545340511,62.6266052279888,53.3996030730224,0.15735112393566,0.0158485252575585,0.294889209463541,0.431669501895147,0.59476173796997,0.456146984098486,0.732296353950505,0.547517472145388,0.0597219676848392,0.277785861212055,0.0279839502145303,0.52074662643616,0.762253532073965,1.05037182274786,0.805617360072805,1.29321532675882,0.966805845199103,0.105472633973147,0.430887373813872,0.0294594776306846,0.734708511652395,0.848785272419993,1.01185460269453,0.920397871738702,1.22692781255528,0.939019162616834,0.101037202716492,1.89079980281098,1.49825104434043,1.58812282415634,1.60442081531467,1.55645815562017,1.01722747672468,1.15692454379605,1.60255818775372,1.12293159080869
1,01PrAy,04,3,0.788584978001704,45.9103103115694,61.7295226372887,59.0484298687096,57.6102528325708,55.5039572513659,52.6609503178186,52.7591714040747,60.3408332633192,48.8917393765169,0.466705812966892,0.0260967929064646,0.410142718098719,0.544424592012387,0.639835764789032,0.516832840969887,0.796792886166343,0.611773672492123,0.0715281740136296,0.69978963453238,0.0391750822170017,0.615796744318689,0.817412316794907,0.960699669669292,0.776099073080086,1.19639321225077,0.918469801033963,0.107407873211433,4.47516131251663,0.0671295636087808,0.777921616459648,1.02248300004114,0.872520374350721,0.895506776569731,1.26617261552117,1.11288173080637,0.110027779324235,1.62636341220316,1.62450071967666,1.33438635867377,1.37769395991498,1.21284567131944,0.665214068527478,0.987925548744168,1.41448213731342,0.706658977242175
1,01PrAy,04,4,0.782649217358887,47.4231038601433,58.6744568370312,61.4721974100189,58.427566918067,55.979950858787,53.3446595370695,51.1745519552171,62.0811069652748,51.8972578548053,0.636580885039051,0.0324350786163439,0.45737681107311,0.625880873118654,0.689140362466416,0.549943866401695,0.755544818354159,0.68321454461989,0.068737796801224,0.994047386301973,0.0506447263745396,0.714231826518207,0.977313760294414,1.07620123039807,0.858873456572724,1.17987221574519,1.0668618017269,0.107350395616398,2.8484644816607,0.0899366310818832,0.899256119942246,1.23544677610611,1.03543061834915,0.867521823176651,1.11979718769651,1.45074283139429,0.112857931517284,0.314093758527093,1.44986051471327,1.39910259080007,1.42657706337694,1.02889571455243,0.890592013614626,0.95718268443653,1.39723991469317,0.796061201189125
1,01PrAy,04,5,0.840589303922297,45.8214271925167,60.1166326838678,58.0786321023453,61.7656546877449,59.0411497535623,58.7597544152344,54.0883527855618,63.8820274233593,50.8391009913925,0.746422200343136,0.0280812851204993,0.58654408730546,0.505696181328326,0.528389546463747,0.442255622841956,0.677147587593668,0.601047991534871,0.0647580798671821,1.29384099786865,0.0486704586531153,1.01672288394316,0.876468512300469,0.915983892125309,0.766685188503895,1.1738373105713,1.04183252322299,0.112260229300348,3.29950696876824,0.0671564719506168,1.53090607688159,0.831890677649056,0.95291361977813,0.747505218888559,1.15833529325347,1.39476278209154,0.115979577714887,0.470082415023854,1.44051505782694,1.17788357484184,1.59092280428826,1.18579977202401,0.856113442319321,1.12572980517104,1.55227313569293,1.34132976372086
1,01PrAy,04,6,0.749545437917449,46.038446551628,61.2045751031229,54.5176861261886,55.6221309603017,53.8491168042927,50.8601013830283,49.8509667204861,55.6906735823842,49.753404536414,0.956578138185621,0.0225680884123102,0.754039151326583,0.593779436588996,0.612191743011282,0.551724857422577,0.809377678305279,0.769095994370469,0.0678467591775268,1.42327279296964,0.033591072628309,1.12245453279713,0.883735775077492,0.911235604326579,0.821306395682412,1.20477822282524,1.14472374093649,0.100996809492228,4.48662338759793,0.0481413374394435,1.60764541239635,0.972722053719703,0.898104638023052,0.92977410161121,1.22963044839867,1.37369485429023,0.127425487022018,0.23306986707213,1.360932440596,0.797466827894151,1.35627569999516,0.858470129765178,0.631686862504184,0.951604941782013,1.35674137405525,0.814696768117265
1,01PrAy,04,7,0.771597571147647,42.1896332527645,59.8400668384613,52.5851267062886,57.6667698392291,53.8707032486674,51.9734815784678,50.0239370790964,56.8911350602974,46.0967681290999,1.50480188638002,0.0347292143233786,0.829982490160326,0.70285004791681,0.613982576210377,0.491256320395069,0.729093153297646,0.893177605053949,0.0760012949730883,2.28847033451616,0.0528208303378556,1.26252337013896,1.06897922130408,0.933941185422047,0.747304952065905,1.10900985539192,1.35855208762832,0.1156122486443,4.11575289577549,0.0691599293601706,1.38855690469398,1.24330053381004,0.930876877814399,0.792239212250041,1.25573803584178,1.56068084347526,0.113007740932407,0.274979176980243,1.35720035784745,0.855206195637963,1.4694272531095,1.01865698500302,1.01632862618015,0.965104732077146,1.35347498373087,0.78675244624576
1,01PrAy,04,8,0.688820817228455,44.16791985485,60.82272315175,54.5525393094199,57.1013255512676,56.8565740436458,53.373711087096,48.903530654635,58.3064458690431,47.2694395886901,1.00560927713031,0.0392648369804487,0.68657332741317,0.704588958910346,0.619126716618658,0.434095412704076,0.798260766292278,0.714838119720994,0.0675168672980349,1.65875090179725,0.0648043103642495,1.13323157233501,1.16279906075773,1.02192111375924,0.716533896431968,1.31755030556423,1.1797841865216,0.111444922910521,3.23678092159613,0.0962546213030226,1.1977229025218,1.14910094563083,0.964347928449742,0.625882775150362,1.33204941671367,1.31092178505645,0.100551078979064,0.292669462928765,1.3730086100962,1.22259932365867,1.76835685834843,1.08848825711374,1.01025680162921,1.08615993998623,1.45636236326128,1.34600013141702
1,01PrAy,04,9,0.510076201906852,43.723682688278,61.7941929193021,53.3736450578149,57.3013519542143,57.7328992306863,58.9823423183016,55.1911559455076,57.7006628901044,46.1426759132506,1.7357582874125,0.0287889748940435,0.617118104730586,0.719975100972603,0.545702818414575,0.409897389250574,0.650524872474277,0.685142980083665,0.0526388027522267,4.10319761843063,0.0680475133064554,1.45896087012725,1.7019176564846,1.29023150188234,0.969168977718945,1.53806306196996,1.61975338248335,0.12444972185948,5.45266380926163,0.077827571989364,1.04350643614495,1.48875993174162,0.87870381005367,0.822013523368261,1.21142940823532,1.33745706593065,0.0862670350673878,0.671674556293491,2.43362708385992,1.85065547590189,2.30185315011222,1.30726261129565,1.39014515619703,1.33007859275727,2.20127657877121,1.1885263812403
1,01PrAy,05,1,0.765031636501391,59.4439044805122,64.0607631471445,60.852031243904,57.925482652051,58.3524164183662,56.6673403587684,54.3829785606157,63.3108796210576,53.9117646177655,0.0565315065156978,0.0141273010686965,0.326893482329295,0.563568598118347,0.622141708681143,0.464161089954867,0.702717915162419,0.522087923501789,0.0710832158322916,0.0992961757135604,0.0248145023207196,0.574204488877664,0.9899289928965,1.09284044256642,0.815414848381099,1.23437025037012,0.917026624430599,0.124877098400687,0.0895684159384453,0.0266464491389874,0.658016655591965,1.11845476174349,0.895906381899112,0.818547957257705,1.0635144233394,0.905694870407042,0.149289631735945,0.185098812281946,0.180907895777449,1.56623862920836,1.66914891226323,1.59138412823535,0.929684977914227,1.3534332022578,1.60162859080189,1.20628546721102
1,01PrAy,05,2,0.772779867360694,56.9031703030843,61.3128090726,57.8562966072909,56.0391178819316,57.31347710961,51.355892960776,52.144155235097,59.0097445040509,50.3274587381306,0.138449783635176,0.0208966358145159,0.439035466764984,0.636797975192389,0.635958437147696,0.59505292637201,0.8321416505397,0.713962370871924,0.0667505846407992,0.209497657998415,0.0316184731071503,0.664354848519603,0.963546329298086,0.962314717834999,0.900496840994103,1.25914768725076,1.08030150627455,0.101011544485123,0.463295575122516,0.0380421384590928,0.917545499952026,1.03995139938043,0.857281201463003,0.853577353209252,1.16402995551134,1.42637043360032,0.0938081368004545,0.74391152201436,1.4820021401006,1.30085560985735,1.4251901177621,1.10154785935835,0.817022075351609,1.3562706152531,1.35207956442485,0.860329600576858
1,01PrAy,05,3,0.83772048193864,54.6724177674171,58.5748880453079,57.8621838954615,57.2264003745821,57.298545628951,55.5875896460325,52.5315079486145,59.1348138577196,50.5745756058349,0.135086262918553,0.0301867904297842,0.581624461757973,0.725426184731769,0.605226440409451,0.482965608670625,0.780464019033352,0.739714366353245,0.0707762022931775,0.189473898087392,0.0423456427168852,0.815929358851493,1.01748848393132,0.849066069465145,0.677590683064941,1.09488319340283,1.03765659095284,0.099296698014502,0.329618915455488,0.0488774307842261,1.08656850738811,1.12075060174388,0.829717277492012,0.69687735958815,1.22576191573354,1.32766097814559,0.10599749719448,0.781179082103018,1.31810872840095,0.921814600907854,1.51043478557445,0.957206320871985,1.01122526186987,0.860344771496469,1.15838030803652,0.784438845783925
1,01PrAy,05,4,0.837647251896038,54.5753949361147,59.7189283340124,57.2209240007512,57.001046456094,58.1965069404865,54.3731191265749,54.3701883526427,58.9503971403379,46.994727279014,0.123212623142979,0.0291610068337437,0.52534710414253,0.754513213996169,0.576762112082001,0.455475483101938,0.77789928984817,0.621566072196496,0.0737703965635765,0.183557841602916,0.0434483239615964,0.782722181180094,1.12394612551431,0.859346593480764,0.678687778751323,1.15903195638826,0.925920681724598,0.109918800202416,0.309822480537607,0.0656771376026618,1.01387204518386,1.51395463501187,0.776955544941798,0.787952921667478,1.17986754574136,1.07881216117583,0.124142926769957,0.834254899233987,1.21936726410505,1.20725974114659,1.59097508413783,0.961849564257773,0.692224341452035,0.857072923271087,1.27711083513771,1.08059642404268
1,01PrAy,05,5,0.752956864986745,55.4959066458263,59.0329109795737,52.7181892957239,55.1332670467391,60.485446349932,57.8005337522169,54.4751180516905,59.3959710038425,49.4577889193021,0.19212197535919,0.0254831421796904,0.60530588584068,4.45265908592152,0.553280310637108,0.459774497572235,0.704385374117177,0.648197771826106,0.0556732139140236,0.33666409975317,0.0446542427936096,1.06077107765552,7.80236466798106,0.969674532050269,0.805833246606581,1.23446393265271,1.13590349820341,0.0975721371356748,0.726523443457749,0.0483991755316776,1.13811740525421,13.5438885381977,0.881611169347632,0.79515691913389,1.16912576854332,1.23095750389493,0.0915441451289113,0.988358288943744,1.64819513013728,1.06984837165995,1.85122185050453,1.33108229396735,0.965541065783205,1.12200202459833,1.60116371096964,0.954365283010697
1,01PrAy,05,6,0.821125281578493,46.8486236695427,60.0894720051829,57.7846728672612,58.3296911646226,57.4623917310837,54.51215317264,52.5167583450752,59.2311988656119,46.944724638259,0.44406762290809,0.0233031189513683,0.579706205101122,10.8068151184412,0.606106251354814,0.464586434630074,0.791975562726608,0.738512900680843,0.0731598478932818,0.640975178618285,0.0336764236852758,0.837858015747037,15.6122475703829,0.875950821458357,0.671477843933924,1.1445271616292,1.06717552251697,0.105738329436088,3.6082979517583,0.045657911445383,1.09049867872679,24.8163286687624,0.871070713895715,0.718332020246019,1.1975837797395,1.40482409348354,0.121927005304321,1.57003083624941,1.17606788579205,1.03496768013179,0.265668869073199,0.981880474041787,0.619117899093458,0.858941680991262,1.30738886927784,0.843108654613543
1,01PrAy,05,7,0.254709446665199,52.6126610806491,58.6571829608977,53.4326205150734,67.7195914969559,57.1915825529657,57.4568517980162,50.3749901285788,55.4522156448104,46.7149104825104,0.156178525218139,0.0225378797397318,0.484512827219607,8.13406775859269,0.516477295501725,0.364115031642918,0.654635400073921,0.68481374527398,0.0526989637488392,0.482942480702658,0.0696958349928893,1.49826404237621,25.152248307817,1.59713393821012,1.12599739435569,2.02439533195443,2.11760152710564,0.162962600814736,0.697346772279297,0.0430271544290826,0.844953683434084,27.3536635159593,0.98327104148074,0.77503716595896,1.13155689137323,1.1153205649889,0.0918815974597352,0.683754461568635,1.68529061875906,1.50183862157959,0.550588798641411,0.758718348740954,0.661870593884791,1.41849367869857,1.49159510904673,0.645108482467378
1,01PrAy,06,1,0.832601557415233,54.5374151318596,59.0655509236555,59.63904955821,95.145009726719,58.5333287900961,54.6335032402982,56.0014915584699,59.7369116245362,50.4303917198243,0.097500531299461,0.0328611381050758,0.585259737239296,1.35048051506942,0.708476666255133,0.470554160357602,0.739684954468408,0.811351327279277,0.0816619288834145,0.132808474824474,0.0447684295949252,0.797367711020081,1.83871922630975,0.965206888812091,0.64110176977892,1.00766325302205,1.10528238294567,0.111260931466877,0.192923916358729,0.0651763863483833,1.21246982802679,5.86263872299744,0.923748146989825,0.753130960361053,1.02039863456511,1.56489825654592,0.133885256487371,0.942311214494802,0.941379846850132,1.15885419188056,1.48716128662671,0.57162689191617,0.732753494444068,0.913438817510035,1.19424616237802,0.939517111560792
1,01PrAy,06,2,0.771552837758738,57.1768195515312,57.2970401123268,60.8599421696556,87.8569729119999,57.4960990542369,55.1359464971037,52.676563533949,60.0732969822381,52.2631228496566,0.0709423208479792,0.0211710542326638,0.34590760351756,1.16455636639572,0.706912117123272,0.53905257302911,0.816058740195261,0.703531353395302,0.0708593130870762,0.113368221623482,0.0338328799308309,0.552890091297553,1.86075887324692,1.12991743190253,0.861665703158328,1.30434494938769,1.12447951663989,0.113269806949534,0.149909429065152,0.0330876192110219,0.816369513020678,3.91709445098474,1.08133900578469,0.84621060551816,1.37690832548233,1.30548304258173,0.105955527730229,1.72319941839761,1.70969508570378,1.33902443659028,1.72319941839761,1.4424024316948,0.809561461663084,1.40049243367945,1.4270354324225,0.823997127646148
1,01PrAy,06,3,0.825244547112164,51.1491092567219,57.0879860623532,57.8835497937641,87.4059425523958,55.5196088302206,54.5624267366797,52.3952130919186,60.4775300319999,49.2282531200196,0.218877987975375,0.0296964314984081,0.505380170751444,1.69059924060473,0.726150627695197,0.496691449012831,0.825335900547887,0.707899958083236,0.0768443684303804,0.302448032230696,0.0410880797909677,0.69930826230316,2.33787403085172,1.00482449066438,0.687351944332096,1.14207722993351,0.97950096839273,0.106341772156067,1.94940974637499,0.0543122955345136,0.999436961376087,4.73673104450475,1.01027169960096,0.817210009842049,1.21256529773069,1.20381496847439,0.109348247914015,1.50857703010305,1.2142659688204,1.19936414293267,1.50857703010305,0.866867152812725,0.744858453356945,0.862676014281801,1.22590802029519,0.903190353414064
1,01PrAy,06,4,0.872431142685127,45.5644594432212,57.911514089155,54.6106414771985,81.4509325051219,62.7577181784426,61.0547906597585,57.8241690933377,61.8553114194276,51.2705108528025,1.74268953178313,0.0379951691754365,0.564200501340043,2.51707656837319,0.6054298239226,0.474050408565446,0.673804306142508,0.724553447591936,0.0501598070182857,3.03805648500034,0.0662179761459495,0.983423152122133,4.38664950283748,1.05541702971945,0.826417520914095,1.1745917876722,1.26294145462375,0.0874386668997138,5.33092361016073,0.0972537206966676,1.05602176113959,8.14463198122217,0.95772641350426,0.808331562084682,1.17498225183346,1.55485643580039,0.0824726466272215,0.763912148227432,1.5476147666162,1.47916302276406,1.8447046480969,1.22491368845612,0.948778422440349,1.17229432073304,1.63888375841905,1.17601958570459
1,01PrAy,06,5,0.877218553513926,44.4551024719131,60.6056604171094,54.5474163466997,88.8254084132749,58.2201378823787,56.5994944680157,51.7694785052649,57.0090983914247,49.0536349233283,1.01432334800867,0.0313750629744444,0.587160670589309,1.95762703678931,0.645144859826761,0.478168070684495,0.757742574152925,0.749264752923088,0.0610176088604636,1.55820583268012,0.048197804948663,0.902138466449868,3.00610917665344,0.991309422379158,0.73476882263848,1.16429783936488,1.15115731749012,0.0937581181728315,3.52233291507974,0.0646812258676527,1.18097792991146,8.75048107792996,0.934532510555861,0.869452967099448,1.17380219554802,1.45633852615138,0.0897097021109598,0.31968294341755,1.37256442202946,1.32553168017197,1.6612802631349,0.870105724363717,0.806774507605105,0.943681696774457,1.22029009938192,1.11691120143772
1,01PrAy,06,6,0.895409040915115,47.0824614120072,54.1738489484186,54.128994177155,82.4498959342019,58.6434758266639,56.6583391377316,52.0520708870037,58.3291115355596,49.7123697255922,2.15573539537829,0.0498435003596199,0.720505255104282,4.48103087307695,0.672237460930412,0.450253968684245,0.775407090848861,0.909681761840379,0.0548275720740181,3.53276168158945,0.0816850679941865,1.18083533610792,7.34135885706838,1.10179475662624,0.737983852443183,1.27082725092566,1.49087720830818,0.0898610047552875,6.15024051018768,0.0878532508405735,1.42753286717835,15.323937261599,1.03664295900484,0.798930034531773,1.26113243198732,1.9906693721359,0.100701710483462,0.578587679837948,1.40607283643516,1.3944312332191,1.76370288723238,1.2663735978425,0.984181135885315,1.22725781103655,1.46241819600087,1.07545130509919
1,01PrAy,06,7,0.874293858998457,51.7138768883581,57.2227180518416,56.7128697105482,81.9359135609578,57.9769907481573,58.7118830265243,49.0482122555864,58.3352373691244,50.2639699547337,0.781715292089734,0.0416327158441651,0.675047026823784,3.97314315541307,0.607671494571619,0.406720081869192,0.64856505370824,0.690498640508013,0.0590328799533475,1.357842525361,0.0723120797020231,1.17264742095486,6.89960815855148,1.05567024751572,0.706588341588534,1.12664809814805,1.19943335613366,0.102553243348656,3.01094923880771,0.101591342877048,1.4960125889975,13.326015628277,0.890168894393823,0.766145983660789,1.07403433722517,1.28753775355793,0.115954393715882,0.642841494139555,1.53969967430093,1.48847724448902,1.17136383810797,1.24912879973152,0.869617160670496,1.23655602150495,1.59604434709404,1.08382004897487
1,01PrAy,06,8,0.542364026058406,79.572183111235,54.1935298627447,54.1784461982101,101.614400039834,55.4502684976441,53.8298178854656,48.8850964177506,57.091715171199,46.3309815130006,0.28865129661042,0.0318868196790529,0.459279247428106,1.88767662365389,0.717717595247896,0.453627232302001,0.748990852102639,0.660548493802115,0.0598941920936319,0.516487054943887,0.057030599549656,0.821680908469362,3.37480113387347,1.28424946598266,0.811717421818086,1.34018773889024,1.18177075981109,0.107170497556464,1.28495284838466,0.0741664502948036,0.709926329923031,9.11924172618554,1.25506928461824,0.734966967401043,1.2043003351412,0.99739692213419,0.101328227962794,0.765770736667258,0.137601248212329,1.32409187577583,1.91314628859679,0.928284562813121,1.02560659623572,0.917574482580013,1.8107020428888,0.732243528981005
1,01PrAy,07,1,0.756737067621133,54.0719970910357,52.5198803387065,56.761100570496,106.232092161587,56.3581633267791,56.1794217407798,55.0527411195456,61.3854050947485,51.7275394519191,0.0789185561124828,0.0530869468382584,0.514818587903722,1.82252680347271,0.743745236665103,0.499230816458282,0.85025613328428,0.651915777803878,0.0643636507307615,0.113619162569514,0.0764259349740167,0.741362849710691,2.62012586670229,1.07106708761204,0.718993936691634,1.22441839341762,0.938692928484289,0.0926954726200152,0.142179777729104,0.168486916188308,1.11863303646561,17.0480885101359,0.928502433541952,0.763814479143943,1.43039855970651,1.24584453912588,0.101297175074356,1.52765547860115,0.211184807055516,1.20820062162191,1.56490968932759,1.25290567449364,0.706665809717191,0.928328363539519,1.26408193771158,0.780242875901914
1,01PrAy,07,2,0.849125109722972,59.0018951913413,54.4698642714625,56.2123799016792,110.636895944282,57.4283685522475,54.2045951127948,50.3918020758745,57.1093058491311,49.9548140263913,0.166119457272219,0.0376687365954732,0.539373741409808,1.23040861700614,0.727302699017721,0.464433409827463,0.79300968480634,0.795266942338752,0.061499477185637,0.261562624081434,0.0593061984923798,0.849337345331761,1.93399354991663,1.14527146041347,0.731358330891677,1.24863283449262,1.25218651280195,0.0968457390424298,0.606863727825494,0.0630717093773134,1.0287311920725,15.7489560601226,1.11479594886058,0.7309262524068,1.05301846258331,1.35385684135596,0.107284185010743,0.948798899316814,0.905491759372538,1.01166410246173,1.69945599168428,1.42052075698942,0.832847524627299,1.12901248166558,1.41446707076065,0.98232700766077
1,01PrAy,07,3,0.784158427934672,56.7317484686744,50.4099225669157,53.7760813796582,103.81377420145,59.8691170584824,56.9340740144494,52.9480632876332,56.8688902007234,50.9020123967009,0.181888135080299,0.0496168130561234,0.605923080034416,3.11842912423111,0.617686656357788,0.416793009585861,0.734534693189643,0.7679416909422,0.0540529479179431,0.328975536466922,0.0897337470728367,1.09599321009076,5.63779956899048,1.11732530843797,0.753956111795444,1.32864737467345,1.38897579348439,0.0977758452276058,0.722029466153314,0.111150984316203,1.13933170134941,15.2732295720044,1.04012250662899,0.650026340501006,1.17622913973901,1.54208160363799,0.108141946347271,1.00278729375669,0.569262812453008,1.17414820580798,1.93269963442635,1.28450835840624,0.873335300413592,1.20162183029447,1.65516946164762,1.09638387887166
1,01PrAy,07,4,0.752835170892927,57.8950007445331,51.5364626129617,52.3551589507464,109.406119095548,69.717096570643,71.1507995173958,60.9793036571004,58.0883871107765,50.6083333786115,0.112325845442464,0.0412688936859082,0.530701740159746,2.04089221738713,0.458631167202661,0.285871771069874,0.529141536537227,0.630409482060904,0.0481477342747011,0.272704525263885,0.100178511668264,1.28853459762293,4.95158494906441,1.11359704145534,0.694143845154646,1.28476331216636,1.53049746112167,0.116902369842206,0.319961649995906,0.114993843617827,1.03048714288354,17.7716605994253,1.03961229915633,0.64773922164996,1.08995829923052,1.16564309599463,0.0977505533121737,1.62574818985412,2.55281811567384,1.71421794671285,2.55281811567384,1.81525972165152,1.66253298349538,1.814328461053,2.28647758449911,1.67510500157531
1,01PrAy,07,5,0.690741594979281,55.5910124793359,47.746039938984,51.6089163003068,101.67001554997,56.4196876484367,54.8450815660026,50.8080331209911,55.5674869622755,46.8141957609495,0.169216490612685,0.0643127529112997,0.632163502051956,4.89690049296659,0.699492864112047,0.405304826088361,0.751152908693102,0.785721500533093,0.054504314719666,0.275671350360962,0.104730511961055,1.02984074769018,7.97519643715454,1.13960413790553,0.660343664987306,1.22373310839516,1.27999061686839,0.088797180297568,0.59964644259804,0.14860317177714,0.999454902712437,19.8869065598659,1.07694246778746,0.644153401053426,1.16280048489907,1.29291423803019,0.0818512071501899,0.763922983023313,1.75392619052564,1.3762720977296,0.842154656993393,0.969746791920786,0.942272573086056,0.916195348429362,1.46707671930201,0.869628875828124
1,01PrAy,07,6,0.633366640684335,55.1238917774402,48.0551073561156,47.6903559612826,111.036960933901,55.6456509687118,54.7764141272608,49.3905153639813,55.6295474738004,46.2700709512619,0.158339415586056,0.0724794907733452,0.999307176663017,1.1019441405401,0.684865079616695,0.410978280938471,0.775591468448529,0.862054120603394,0.0568615091959492,0.289431926754244,0.132466168952334,1.82668895150479,2.01126937272293,1.25190214738563,0.751275326200435,1.41769574702087,1.57571949901395,0.103941440283264,0.559549723350733,0.138187883406564,1.70376613278963,13.571964699605,1.0104997070182,0.682507920995328,1.15438700345134,1.73434232893604,0.108011313456531,0.844462957212864,0.289403765044276,0.970189452083265,1.94107738469359,1.16436703860533,0.778340133984727,1.01256393739144,1.64818121701402,1.03258704583376
1,01PrAy,07,7,0.672775865628095,55.1694790919386,47.7380028982705,50.7880757937122,108.665000769886,54.4049075748293,52.9738492667773,48.9485880353871,53.3556473166464,47.0828021043699,0.174473101978297,0.0556375756046223,0.745305045305177,0.987124701189021,0.773110261856077,0.497322975819089,0.853023704949874,0.935241325841579,0.0545725408273258,0.284549225686442,0.0906934490991693,1.21561299985245,1.60740260059859,1.26089718415824,0.81117199679786,1.39115019363206,1.5252719051446,0.0890093946213877,0.631942766156755,0.178509184356047,1.25525464945962,11.1291491009324,1.12313594877818,0.791236839557318,1.11447882320821,1.67299438770169,0.09298069403221,0.623292082825597,0.153902154182936,0.905950502157041,1.75578841859837,0.988838803048305,0.966486901684369,0.907813160604036,1.49920721752485,0.715028011340086
1,01PrAy,v1mspost,1,1.02331883652813,57.5534350921113,48.9783276170068,58.4545428714916,100.127348528402,59.5005771454722,55.7514586220591,54.2949480356485,62.5089920164967,48.1970799968267,0.0904343474969748,0.0768457514309619,0.461694231311587,1.76296383142533,0.677731450968704,0.469929927018976,0.749580203720614,0.676101305950244,0.0582618058059316,0.118681858007253,0.100820680287944,0.606014283040468,2.31339946599643,0.889557444177644,0.616836655831313,0.983805223468539,0.887389352092921,0.0764662511166691,0.211428252796123,0.212223503240241,0.824317531514932,3.06788832398758,0.956191298150822,0.770953031060386,1.03640176829802,1.3039491026848,0.0873244388441422,0.858961720881311,0.268469196035823,0.859893097103464,1.37820396473203,0.915309982321613,0.784451623109009,0.943251268986226,1.18773752730159,0.715529782669631
1,01PrAy,v1mspost,2,1.09263942805461,54.4774375152085,45.8119534053587,57.9674364143142,114.90364314396,56.6444992719672,53.7160898095297,54.4642575775121,61.8478520813452,50.3927205011214,0.174572697508947,0.118818691238464,0.587220852767029,0.402169505641324,0.738945727749071,0.538816020727763,0.712417285677411,0.642114455846864,0.055280582385399,0.208238598274688,0.141674725394208,0.700510928694147,0.47963650904063,0.881339378326767,0.642745232907347,0.849712535896566,0.765866754197314,0.0659444797559484,0.452251485194894,0.245056183299492,0.984335542889492,0.439686739135322,1.03109420987214,0.772103732899961,0.990786603155495,1.17277964951943,0.0879418765687006,0.6428983287109,0.217714573467835,0.797044903722351,0.129231645213528,1.28696090647778,0.680619998124578,0.821261284086688,1.04945409905832,0.714616070559128
1,01PrAy,v1mspost,3,1.05804653011177,52.1313773133484,44.4511860338229,58.4955099139048,115.611248016859,59.8413802119155,54.8297124652017,54.3334500493032,64.8079341428479,52.1837898054756,0.183915900463837,0.135903012471938,0.410923233928967,0.380864054988154,0.645778411898725,0.440289783716143,0.683510049273146,0.696625290444413,0.0477946944171415,0.257706221782362,0.19032061826629,0.575860837996048,0.533672543202761,0.904976084392538,0.617067073366422,0.957830149325949,0.976287831410036,0.0669863085875965,0.524706059883336,0.712409880739632,0.847563878167855,0.404969372361294,0.955622084584328,0.708643032283301,1.10085204670784,1.56472748465465,0.0859465611019155,0.806326022659361,1.51555763254109,1.24639422445728,0.303856615527134,0.911569846581403,0.894339663018944,1.06664149864353,1.27526642394032,0.871055631177785
1,01PrAy,v1mspre,1,0.946289558959005,68.715503303637,65.4911119556021,67.2366512492241,73.018333309521,61.0852863703803,57.8542674237409,55.5668555446868,74.8486468934686,72.1095722165717,0.0685225066705611,0.068006618722903,0.272218627411292,0.305784370920879,0.513195334688068,0.439358870476496,0.535446358697638,0.436962293461371,0.0792592920716511,0.123095456478091,0.122197206345011,0.489696801402691,0.549972226199358,0.92321183615618,0.790432471280632,0.963200414425859,0.786029873689958,0.142571509579284,0.803694712717243,0.701121425566466,0.732763433029493,0.854892379801335,0.916345285948554,0.949975347054009,0.981057527858014,1,0.183499964908829,1.91314420391061,1.906625031742,1.67100352336211,1.91547247968512,1.33247222574911,1.39393870619604,1.43491635982732,1.64818642077197,1.81209703529711
1,01PrAy,v1mspre,2,0.961920589820158,69.3447476020703,63.2275805382869,64.6596095247464,69.2633928500301,56.9477739510772,54.8215635526703,53.8946053040954,73.6169956561808,65.5258686962874,0.0720779231567773,0.085448309863418,0.372661475193258,0.394384046876966,0.666589263007838,0.567233863477546,0.590625749258148,0.404504502479786,0.0823270613178558,0.120330579367497,0.142666795488318,0.622882263348841,0.659061675665134,1.11411723706869,0.948144063884137,0.98715609617555,0.676015658528385,0.137592332533701,0.678866735385652,0.735937622804548,0.769489841327765,0.896484791652405,1,0.9911984713727,0.944955158802036,0.822267641313472,0.155259033609652,1.79629186446308,1.79070391828718,1.51596323130514,1.79629186446308,1.41817417322678,1.25007012576828,1.29337670863155,1.53039875892623,1.62911914136723
1,01PrAy,v1mspre,3,0.930029363489143,67.5028602609804,56.8906164280727,63.3342216619445,68.4113988419669,55.2444239202058,53.4243785813364,53.4621596158531,70.8806738870657,60.8552706857713,0.094540567571689,0.102723808878948,0.446362660793267,0.382837210542139,0.625144313860163,0.538258757127624,0.600869470922931,0.462099872508588,0.0862905819379151,0.15738749068679,0.171056868457229,0.743485880896172,0.637628536325189,1.0413607478264,0.896706384049777,1.00091764380897,0.769725966469325,0.143746931056978,0.530639162709812,0.394740230027872,0.980660734936347,0.845019430164134,0.94678585255593,1,1,0.930711223258177,0.17015273980977,1.75717748316373,1.76369675830995,1.70642026952523,1.77114735847707,1.46567275162524,1.14343429439738,1.17556500761808,1.4912841896997,1.15041923205406
1,02HaVi,02,1,0.785024883666492,60.7322240414488,61.6352873005167,58.2776675110315,69.5326640959091,54.4248465501781,56.5404640343275,31.9057491631633,67.298946354036,55.4852822381131,0.314834269957125,0.329093162318769,0.339084585015881,0.199095014170389,0.622575822267774,0.596964834060807,0.5323551444103,0.27147313358475,0.652612273959579,0.603928541631677,0.631293370012429,0.650453643195302,0.381838742149258,1.19442228175168,1.14544719280023,1.02141948492587,0.52079807035629,1.2522187449029,0.69690114373738,0.784851286293592,0.813138467978442,0.501918946905486,1.10869630949047,1.03493647601867,1.05601557336357,0.810491467298319,1.18715178542075,0.150171904371745,0.128752035841202,1.62069244392515,2.01975390763549,1.79857048259183,1.28728753375408,1.54851679996353,1.65468484398449,1.39578382435444
1,02HaVi,02,2,0.826149286934478,64.0085868645461,67.7143668703071,56.951164441576,68.8242017443407,54.7001539873952,55.2232762371994,30.7985164914798,73.5056240917793,57.120685326079,0.395310636167426,0.425328179227368,0.411474080988801,0.34351939890959,0.540562268370937,0.623691026164438,0.544868078568828,0.261089044472078,0.676009941911297,0.627058963321627,0.674706824690403,0.65264860549414,0.544823093294389,0.857411105987195,0.989426317909029,0.864363432110393,0.414146953782341,1.0723900840544,0.833070245126682,0.830631990476207,0.838911809679548,0.804919614949384,0.848341048021148,1.00780605180116,0.978790987901616,0.749642983858357,1.14909687519772,0.842159525567078,1.28780324465344,1.29478825592439,1.38186806310219,1.23099181964975,1.1155062999701,1.13227032702038,1.33856099322232,1.16300437661254
1,02HaVi,02,3,0.847086376688738,65.0952681361685,68.8060353602809,59.2998901178011,68.9317601943119,52.3752153602151,57.3159908387536,32.7844984364616,72.7984623384445,54.743401277533,0.40128701706419,0.426605882937816,0.491265539285759,0.471213558202547,0.583635938550905,0.556423679408522,0.444633949198451,0.273552321726532,0.657849050815976,0.665098662304382,0.707103293061757,0.81425730785721,0.780868821963546,0.967378172924323,0.922367942422313,0.737014276239735,0.453393079079156,1.0904433714661,0.785236958056534,0.996612047525636,1.18772434904234,1.28693099019447,1.06826555919871,1.07062370483206,0.888178225046852,0.828829144542233,1.16908593835958,1.01817216642298,1.36322845515814,1.38278630148321,1.46101768678349,1.48150685912404,1.02562277454682,1.34925856492595,1.46334600182219,1.10338849683936
1,02HaVi,02,4,0.840713550210555,62.3293647055528,67.0291681847827,57.433143439571,68.8500818769002,52.3239707700692,55.0608248075681,32.7177352605168,70.6342128382793,55.1949952884925,0.397116018679681,0.407350124976327,0.422397291272707,0.292082397692619,0.59153875834752,0.711401037462413,0.479891632367744,0.285572497897035,0.65951074044232,0.616234953816151,0.632154109972162,0.655405177488811,0.453090411892202,0.917915519120117,1.10408293762375,0.74475465857747,0.443136670699392,1.023489913668,0.850057291372386,0.886685266317357,0.824083086705033,0.699416132740169,1.12164239828983,1.52502223346301,0.891867355552809,0.840697971414606,1.13292091289252,0.878951514040121,0.762999764638272,1.23984551318242,1.35393458387902,1.32692574265289,0.920396115231947,1.17232341011709,1.33903315423702,1.25614395185337
1,02HaVi,02,5,0.828978417115762,64.7663184378117,69.7179604814982,54.9846744677348,67.1733953894024,51.6701752692325,55.9348921391334,30.6974016835563,73.0411767775038,56.0148118838714,0.375121026085316,0.357188450505788,0.365876218432193,0.305120288479991,0.693068234697385,0.628272652496332,0.631176096546862,0.261016739150243,0.712011824385385,0.583675708831183,0.55581047623951,0.56917878298183,0.474628964364589,1.07844702450266,0.977680993194693,0.982206589408871,0.406122910538814,1.10797508578553,0.861212540110467,0.904621960053552,0.676652207183688,0.810844036649751,1.22363271429511,1.1612696081718,1.11851915853767,0.778011308601596,1.35295417631549,0.846819798548466,0.794199156681005,1.31016084862035,1.39258433189947,1.4042260668259,0.970687858165673,1.35719345772313,1.3683695232525,1.225874687753
1,02HaVi,02,6,0.816772985486284,64.9117950991336,67.7462262718887,55.8888863542795,67.1006866327705,52.7492264869104,56.9808648070308,32.5796698918423,69.3547772400715,51.6450634592805,0.41284889081382,0.440635570683804,0.503995693368163,0.580319461139617,0.706360478923123,0.591869971849734,0.543247103236076,0.381194262937982,0.772644637539502,0.61909175367494,0.660802920998033,0.755746538710307,0.870151244171347,1.05932775734855,0.887704644207011,0.814772411011561,0.571656148298227,1.1588198957412,0.632657350679728,0.873188534046014,0.975470290771799,1.67414504459148,1.32859859390014,1.08304330309471,0.951558068853661,1.09533194707271,1.37789587518158,1.31110307314614,1.27105517249242,1.25522228153629,1.38095406265846,1.31389711272663,0.898516561760071,1.13554425283853,1.31203441967297,1.12623078757022
1,02HaVi,02,7,0.816969599939662,61.5716489301992,65.2087411542364,60.5613760904415,67.8095222200326,51.1630705785357,54.8464097203696,31.7188085725709,68.1411366303844,52.8893137653847,0.407535144967578,0.438299564075199,0.519321004381477,0.489016312747641,0.668326274011851,0.682358321165503,0.610190228947078,0.359094492290787,0.748886577390304,0.611936886469642,0.658184534475937,0.779800663249135,0.734293541192045,1.00351922245264,1.02469234338309,0.916311505119231,0.539201949367792,1.12457659672973,0.643981608312957,0.859757720379749,1.07722053330688,1.49103025468219,1.1117561694336,1.32577573827271,1.07757572794602,0.898957132015958,1.21130102565426,0.725751575638834,1.26826077398291,1.2645353889299,1.32181318411988,1.25894731135039,0.897119288077134,1.05544815282991,1.27990260227355,0.862659476336823
1,02HaVi,02,8,0.806653682232924,63.2711674887543,68.4991280842477,59.2905773067064,67.6335720416418,49.9213882711627,54.4090207061345,31.0209863741173,67.361947706169,52.0175710413953,0.365481866784134,0.390321587166712,0.525048293293342,0.472094166435444,0.681527062170837,0.715758427463989,0.543499831342966,0.377676917216044,0.756648640724165,0.562242927528783,0.600492462125474,0.807686422574023,0.726200892225096,1.04838802771348,1.10117766953937,0.836143872284398,0.580996693972084,1.16405022574821,0.772062284729201,0.985116941259087,1.18772066160826,1.45668039616949,1.12616832056713,1.32816216519852,0.959420254230743,1.13670631525907,1.15896762519366,1.24729866203057,1.29293437936453,1.27151353245267,1.33437906143312,1.3422954613788,0.837974217780106,1.10620047476335,1.29665974404485,0.886403958624302
1,02HaVi,02,9,0.803951014427946,65.5230880470351,69.5361891122941,55.6981703091699,69.5246958498234,50.2762213186446,53.4022016244133,30.4182623767596,66.5366300167304,51.2280814601086,0.387097771761074,0.452832003081156,0.517738162791221,0.593738990104977,0.741934724844889,0.950811384237009,0.547427933446269,0.372224649333736,0.714800176101261,0.619450708755524,0.724665651762406,0.828449931118941,0.950043494672081,1.18731337463497,1.52170193486529,0.876090147045735,0.595647193552082,1.14392972376031,0.648648765976382,0.823847554321586,0.990248232322224,1.40247864109648,1.39346040906332,2.42386063081312,0.991962965933395,0.93354381330135,1.07920453376533,1.27709044898503,1.3134124380537,1.35578809196715,1.24915045739374,1.385125083138,0.760200604546237,1.13459649186947,1.40282041114581,1.00746953012912
1,02HaVi,02,10,0.809136167745951,62.7882989478259,64.9581291985052,57.8329718475075,69.2053294552815,52.2245773265057,55.361484118294,34.2742759858265,71.8706175475163,50.0645746456525,0.374439437771234,0.443181877333218,0.482515248140334,0.42096574554953,0.652159329458565,0.66434076917365,0.49310437461774,0.312059506440483,0.759610150894174,0.623587551369544,0.738101436143158,0.80356628395716,0.700991924332865,1.08614574646578,1.10652503809194,0.821292674395107,0.519686115959124,1.26515832717297,0.866542368683369,0.985101836076906,0.943932314430625,1.11278603287508,1.16624893591712,1.32217675954048,0.883950609906725,0.910397492455769,1.28238300374328,0.860777201415686,0.857051901112021,1.44378669893932,1.46846681345111,1.38557888169455,0.855189250960188,1.36555539256235,1.46800115091315,1.00233861295497
1,02HaVi,02,11,0.806908512556627,62.2772835250055,67.6624128880616,59.7838593923288,67.9683141293046,51.6239825993492,55.4507013158481,31.5303758059821,65.9194223881469,49.3508400668106,0.429669497788058,0.457594752858905,0.501667359647984,0.347070198607941,0.662786450741785,0.725783103244389,0.580556026848157,0.379926821775498,0.709806046148871,0.665966792990317,0.709308169342688,0.77755940969005,0.537878059065589,1.02730830802417,1.12504984351947,0.899918895018243,0.588847700907968,1.10022281321256,0.973329365104477,0.962698450654792,1.02089694688196,0.756059396920911,1.14958093905869,1.33027300534455,1.16934094823511,0.954503865375999,1.18312600345592,0.780229751313536,0.681973423335526,1.05311225460791,1.36604236077485,1.34275887073267,0.88919648471095,1.15369693159014,1.35393494595291,0.914808323757351
1,02HaVi,02,12,0.798747647094569,63.0846586531431,68.5622570047398,57.7536840043909,67.2329282177654,52.089009548632,54.2589886420129,31.2694560887177,65.8007365480841,48.6200957232142,0.547558625482822,0.563098945794534,0.526540108970116,0.554804631324606,0.710472290699986,0.660492130088483,0.626477177344326,0.432790333796143,0.734748686546545,0.873958042080358,0.898814709057138,0.840372362372407,0.885396045880725,1.13396539870564,1.0542704512463,0.999976113874212,0.69075702111335,1.17276353792038,1.01048880975165,1.18225393970608,1.12867441150898,1.55857500579852,1.33063102697371,1.07698367589174,1.10046121767471,1.19470509951181,1.27265665534519,0.735520698859569,0.793263381137876,1.32738319221222,1.36743053637298,1.39583621071957,0.872426735874265,1.3515978654257,1.37674387222432,1.28267918012579
1,02HaVi,02,13,0.813723898872381,63.1360136284932,68.856593428122,62.2623457999237,70.8104419810111,54.8347878620482,56.3715289692985,38.9808070086373,71.5609305323775,50.6025672129518,0.478287524934785,0.581157762280104,0.429548331848706,0.477067710689373,0.647138054837318,0.566915561312022,0.499076063377665,0.303494223643324,0.635627686522297,0.942576473012205,1.14542890447037,0.84663652494434,0.940116763658231,1.27551313411032,1.11741802030101,0.983682677891467,0.598090010340812,1.25279236195447,0.951451347943546,1.65399931532862,1.05755842168916,1.32366428742732,1.42741717622233,1.08512523060532,1.059615751818,1.00968108803763,1.2939187778616,1.71008849049553,1.73988989645651,1.66259249974521,1.68913437692921,1.68820308299293,1.43582242626085,1.60531792266395,1.72638613438044,1.40508972636358
1,02HaVi,02,14,0.777245795576838,60.6280301319148,65.4116449648503,58.0726607082613,66.6355103556016,52.6757946021408,54.839515709827,30.8688090679152,67.8179575284857,47.0115637720663,0.434615258570123,0.406930873291358,0.483532535719034,0.495472120083624,0.584731012538984,0.731287409277583,0.538424699374397,0.371811744681751,0.782076905350027,0.676847164667385,0.633789427494606,0.753049430555247,0.771570341888854,0.910688438131278,1.13902730043629,0.838617776832543,0.579084708861462,1.21808522188148,0.86956900103231,0.92510100691078,1.09049466613528,1.37053666355628,0.995716408846263,1.47708593811294,0.900989051977956,1.12636054122754,1.39791244590767,0.701065137563175,0.622832694447523,1.25940263337071,1.32319932805431,1.25381460171959,0.810497424064235,0.965565302382759,1.31062625683929,1.27849507484536
1,02HaVi,02,15,0.771058021667181,61.8819087005874,67.7669428652844,55.7352528422729,68.7246190964355,51.0452815981346,53.0417973987691,31.2942310823817,64.976393599581,46.0041267215383,0.414943727898082,0.415510249465367,0.441709553345178,0.349862004254875,0.639572849290205,0.66955069357797,0.543909670106626,0.366516912720068,0.814777022436566,0.651046058072526,0.651998447323399,0.693005556270751,0.54885922448252,1.00355500755263,1.05065712186592,0.853496423161463,0.575047835711487,1.27850497842251,0.908775327906524,1.00837998819671,0.835322278540774,0.988665880313795,1.08765522636321,1.34378001213948,0.963178160479282,1.01716496933765,1.4607928566069,0.783952981184465,0.743439818509652,1.29665403986228,1.36557298326311,1.28547799498647,0.960441356514974,1.1769772259838,1.3897877471607,1.18535925964066
1,02HaVi,02,16,0.746367057379334,61.5695157965791,63.9367460254177,55.6231093640664,68.1626960066453,51.488262402148,55.5297654066587,30.7628710484055,67.7499820269102,46.1495479715328,0.391351442343279,0.389478031784343,0.55909010480148,0.456126875485401,0.679145287022538,0.623844524295546,0.539911532450138,0.338622367521778,0.787774791007393,0.655568376971369,0.652478896956739,0.936537645244505,0.763994959533843,1.13775373542318,1.04516095501405,0.904533330648115,0.567243883913426,1.31976435606861,0.836162065606887,0.668876606890607,1.20462440263292,1.35727984964821,1.1468301846111,1.196735598941,0.974131891194994,0.94738091395451,1.39851156145679,0.828645463112365,0.841218336112665,1.46287705668305,1.5555437873149,1.38930246653315,0.978588615190017,1.03120841700609,1.43121204320082,0.907342334854984
1,02HaVi,02,17,0.759301385640225,62.1959410307665,64.5445633521419,57.078221035573,66.1504501002273,50.1562464782588,54.8669274707111,31.7372112440887,70.3272427415383,44.7924160537928,0.411458177292706,0.458898152469045,0.480343793625081,0.420954045873434,0.657462361950323,0.739860021651817,0.543451528254201,0.328345740261483,0.633631902902491,0.744810445200628,0.830737008392521,0.869514851911732,0.76188240653873,1.1901974596158,1.33945368688303,0.983834664146187,0.594338284752194,1.14708204632925,0.906907030376972,0.949851907632402,0.994751030756164,1.08084389193695,1.21758246855005,1.55692280432571,1.03287972179145,1.01481467901458,1.14202551767905,0.969260010152848,0.873335166486508,1.50243450528857,1.57926751113783,1.55971001873983,0.927351097871438,1.18252980820714,1.51593848813481,1.35761593062725
1,02HaVi,02,18,0.736963972483181,60.299895641375,63.8826267052517,55.5990448194152,66.6187066811381,51.4440036368325,52.1756889892172,29.598491782998,67.0351895485148,43.9707100103774,0.44953986509918,0.471115645144865,0.471532445060096,0.458433510186578,0.720173791199884,0.760189468501103,0.630116380717752,0.381053107505885,0.705773786398692,0.712424695253356,0.746662317981294,0.747286921140144,0.726414441943236,1.1414443237666,1.20492386528016,0.998755944591541,0.603897282671902,1.11859758179839,0.903236639514861,0.857855985296625,1.03238459677013,1.17103891226155,1.23301639695151,1.40402633930367,1.0465869644495,0.997100338411103,1.18272549049439,0.659618025030958,0.617707949314201,1.30829286362476,1.29432283838584,1.32831656646721,0.871962408662526,1.02563268629064,1.2729021330195,0.824464322850202
1,02HaVi,02,19,0.745230073389122,61.3607561342891,63.8008810849686,58.4141524350932,66.215990495557,49.1592354240353,54.4380343174141,30.2109968154728,67.9576691781568,44.9649559719616,0.371823764421612,0.390305671713529,0.464004637114985,0.447877484504509,0.641992979186407,0.740908589623348,0.54158988121561,0.352119029887395,0.76035045371722,0.626486366196179,0.657679253266885,0.781764929883765,0.754583835054473,1.08177191223921,1.24851795054984,0.912644302228159,0.593296499159657,1.28124730405626,0.632860631420686,0.758093254541291,0.858515544579781,1.24097859196552,1.05177715183941,1.53464042674215,0.922197177195661,0.915727190633839,1.32621130863747,0.822125190757585,1.41537780646144,1.41630912924905,1.41677479064285,1.404667594404,0.741100108236022,1.26077822371915,1.40187362604118,0.875676251044825
1,02HaVi,02,20,0.746859195382584,62.2792098006252,67.4443550973467,59.2145229199469,67.3177596314763,44.5551029230535,48.3821753805511,28.1871683959429,63.2214104039954,46.5806272056426,0.663556989826388,0.726644376092558,0.560860309293402,0.633305872233318,0.877380144862531,0.729647332921485,0.659647170082293,0.463985715805111,0.655855926755606,1.0745824800428,1.17677543604287,0.908234904003773,1.02558766085665,1.42070405761636,1.18161055465892,1.06822360617758,0.751378354860892,1.06208284499174,1.28173545043574,1.31503537760328,1.30096169630873,1.58071535193009,1.71637923932053,1.22663012364288,1.14512261592642,1.07140620807397,0.9567110719946,0.695936835136612,0.684295201895786,1.30269875964849,1.35112795393033,1.37022023244529,1.00374161802407,1.05030815098737,1.33855499003024,1.20444337509592
1,02HaVi,02,21,0.767827650077952,58.964617656739,64.8111551665042,57.5224197752321,68.4910361831423,49.7813378964371,51.7399328133814,28.6418198181568,64.6955955632881,44.8944716891608,0.708833633619751,0.749255780536416,0.456205004951251,0.508968685401903,0.758620975445728,0.925533021771345,0.622741350289571,0.433916023245237,0.749737326230113,1.12873881317721,1.19313832907043,0.726374665179685,0.81032041500384,1.20801341005633,1.47390173445281,0.991693722999078,0.690950604283516,1.19387667005901,1.71270246771877,1.76926824648352,1.04919262556858,1.27429598875324,1.50060373751955,2.08286558375366,1.2168552281131,1.15943483061648,1.25034816031955,0.698733378617304,0.69221404019635,1.25287714439844,1.2505488092481,1.2198147852636,0.689885705046009,1.05869399286001,1.27988583214239,0.986981270229508
1,02HaVi,02,22,0.721283336038973,58.6341819939705,63.1942109586396,58.0948745743022,64.1937735781474,50.8126306422377,54.7209489166488,29.5794438722802,66.0719341121511,46.5798665389247,0.483354063982779,0.473152435133832,0.435153267283369,0.545629595437716,0.782004086397335,0.673174926983447,0.638184709484198,0.411651352861266,0.62586069422692,0.78560976907062,0.769090942781777,0.707235651158435,0.886740858616267,1.27110863800703,1.09425482096712,1.03738130123751,0.669092621003532,1.01729881854139,0.958708013860071,1.14341655420985,0.879877322266901,1.41038957090767,1.38109536401231,1.2311504343533,1.15724695286913,1.14658706363183,0.902602621459817,0.751350405248742,0.679638002144741,1.35671484703577,1.36044016667753,1.32272130530465,0.858919009904745,1.03587169288864,1.31620199593156,1.09966779175389
1,02HaVi,02,23,0.731592286390994,58.9267563196032,64.6234169312945,56.2075775376802,65.7337041733139,49.0184757267086,51.8669642937709,29.9989318708201,63.9118583274468,48.8688512045434,0.48861299114606,0.454728307951973,0.491491389482984,0.470650784070652,0.8624384694757,0.891326187921497,0.623918045920073,0.441723971995454,0.63604863433026,0.802580091269205,0.746963143871527,0.807267305842342,0.772970520618809,1.41673722887168,1.4642447551724,1.02494613643354,0.725578617424778,1.04482918556054,0.99927308062022,1.00395444763052,1.12069943303986,1.08620215173174,1.70399642010354,1.38074635493987,1.17576981583782,1.23903648892728,0.98899963455244,0.674979826958606,0.649833976212994,1.37440700880878,1.42097339907843,1.38418595076541,0.802106072394757,1.08755804474772,1.36276541124137,0.735516134309154
1,02HaVi,02,24,0.698648014194866,60.8026135828595,64.9794606486511,58.1520119476455,69.6029723404584,48.8492220868803,50.9046765132629,29.3142864879011,65.8571686739556,48.9578705034716,0.445753243117636,0.492232934266024,0.468548431651128,0.482417284800408,0.810031698387768,0.746918920389628,0.682022766010097,0.44827653708074,0.583315064219614,0.748616750297498,0.826717006992748,0.786832293293693,0.810110490035963,1.36041296052484,1.25447327633602,1.145485721051,0.752866095746628,0.979672795114093,0.76610653901159,1.01682090490101,1.00856997887411,1.39266853256628,1.49837923663878,1.33733203111173,1.14131119590049,1.10946918689796,0.977571567645176,0.713626583350975,0.714092245069312,1.30548262735691,1.30687961251192,1.34785784372555,0.814675176230037,1.14343234937574,1.39442401555921,0.787666796566509
1,02HaVi,02,25,0.695845107210326,60.511747915986,65.7042774510093,58.3613117757112,66.3375498027233,50.4940710837346,49.7233328100589,30.4923043294692,65.4826624133105,44.5798606374887,0.38541173537297,0.396904632124128,0.429792606532799,0.411852599895543,0.78741457496214,0.829226784567623,0.639624784290969,0.429573699581985,0.616674935289592,0.64557713370342,0.664918580241664,0.719868156781859,0.689825407089332,1.31914648042093,1.38923902469646,1.0715763421673,0.71962512582361,1.03308239281149,0.694596274189618,0.794399912942553,0.918608503151307,1.09798338616286,1.31329794937362,1.3304848397684,1.0355299930377,1.29570626651894,1.01321688927837,0.73551307051755,1.30548331319782,1.29197911627157,1.29710139786428,1.33621700275411,0.778819633074139,1.26077976475231,1.42096748001539,0.857516504816758
1,02HaVi,02,26,0.70006929530571,62.2550548814293,63.7507703146907,56.38915067773,66.8263426282632,49.428420676355,51.5967067225259,28.3074805541393,65.3771026521236,45.5983279148968,0.552061401277316,0.667740644553331,0.567875766902501,0.573746319862053,0.902272565547172,0.743264555557908,0.686516168138218,0.527698104963243,0.618872781443063,0.91428454604872,1.10596243410347,0.940413567721191,0.950139528343875,1.49432731844604,1.23101669167638,1.13702986030934,0.873944160802248,1.02490452158952,1.0614899474937,1.271471270994,1.1938215250874,1.51636617696693,1.75099499037231,1.15374189549067,1.07595289440251,1.35074383725511,0.973461365392576,0.8100209468771,1.33528891357866,1.39070282141331,1.40932934505521,1.40793235578207,0.796051054145675,1.1797574411688,1.31573106375467,1.35996905740418
1,02HaVi,02,27,0.697702964494494,60.2309951689226,64.2495503539306,57.939609381025,64.4331633439305,48.1895486967897,50.6709505218525,29.3507358298604,64.705011971682,44.3869017214409,0.466267594962069,0.556846898861966,0.472014060434357,0.344815616726058,0.848898197042228,0.794877634613509,0.626716821000692,0.45310707697533,0.629033691479771,0.832298876599721,0.994047958126995,0.842513582928797,0.615371994720193,1.51541536659256,1.41904520896198,1.11882740375611,0.808825755146446,1.12288399473034,1.08853255308233,1.30078255003806,0.9927478943593,0.839046653336378,1.63315315233534,1.39066787691231,1.14782032059437,1.23966050128736,1.10308585665746,0.868681046495276,0.837947758331948,1.32921471306393,1.36553587180241,1.36507021592115,0.905002205233755,1.24120575150531,1.35063488360201,0.826306361300385
1,02HaVi,03,1,0.775002637188492,65.9720955791426,67.3518603071985,54.571641287416,68.643804968598,51.5706958730509,49.5935656442111,28.0979680422722,63.6619883362076,56.7245817539875,0.336995132883077,0.40264584906028,0.348468636634314,0.185313410528007,0.757594721347834,0.804561810156021,0.646409865727755,0.680183579395728,0.573769722543602,0.600316010130766,0.717295737262251,0.620657273697831,0.329975795940924,1.34942203868329,1.4332637714011,1.15149834828441,1.21164911918838,1.02213431101206,0.706625841929171,0.981961067835653,0.757676241896177,0.510417422001541,1.20368135770001,1.47044770707734,1.07875014869522,3.06089840681894,0.979428139298397,1.07496705293815,0.995805519908265,1.56297462126354,1.90616314975192,1.56344027734019,1.25051939383383,1.25098504991048,1.18020532626023,1.23701536761109
1,02HaVi,03,2,0.783171444775944,65.0677421328694,66.7446278942983,58.1590510622813,66.2576597946925,52.4030822258332,51.4106726087257,29.4379139023035,66.2323781678106,56.9775370364893,0.418266298454265,0.58660150932507,0.470759780445232,0.371327422169818,0.647910335831346,0.736035604273986,0.599960848666911,0.285581549715364,0.538521754778221,0.649110385041707,0.910391570303878,0.730497074521251,0.576171924216773,1.00540433601994,1.14228782044521,0.931090409261714,0.443140688744802,0.83575057590574,0.752289777480679,1.22208589730175,0.942075848602068,1.03559554456785,0.948555363663885,1.24611488676748,1.02621853721507,0.653576488121573,0.874587876120818,0.844957627669298,1.25847230023493,1.23984551318242,1.40655525730235,1.27244239052431,0.944145268723892,1.10945800381488,1.38839413992616,1.33018543038708
1,02HaVi,03,3,0.810774242827574,63.6946007716464,66.7507069046637,55.9171719226538,65.4820710117407,48.5340589018947,50.8329616203457,29.2507777832092,67.8454279035975,54.8862641532231,0.381687960963419,0.492289191716257,0.479389962312804,0.376758862450597,0.793558665955318,0.666016637606848,0.567235049649761,0.350433196866014,0.551125595805796,0.604751001254677,0.7800310092974,0.759505984875777,0.596807075294361,1.25735186912505,1.05533433667831,0.898785614839704,0.555227305644298,0.87327292488941,0.802268479119674,0.960795170499518,0.881290347184709,0.902966962040766,1.28441386768701,1.17174782515041,1.01614314690865,0.906775430215612,0.935990974794518,0.851007425624384,0.793264650917176,1.22586979368328,1.38000574874849,1.43216051300016,0.96928698026657,1.18675372049452,1.41586214917151,0.979065998563759
1,02HaVi,03,4,0.832054784353369,64.5507287282062,69.1151995792067,57.3391340203448,65.9230741630149,49.532080927303,51.0413580327627,29.6153898542918,69.2265549456558,54.0908647811889,0.384423963299209,0.477540348325086,0.498849253893767,0.490058221378842,0.721337988143148,0.677582629291124,0.532691457742349,0.298139709014608,0.613726244203446,0.580999105233027,0.721763801494807,0.753902871457738,0.740577463928914,1.0901934213629,1.02413620731314,0.805122334562031,0.450576565837993,0.927620926069891,0.62686013648071,1.07628060852468,1.02575751975405,1.48354178016445,1.41759964994918,1.17909103850595,1.01138608196608,0.777669157421411,1.17881745016774,1.25428872873269,1.22215733007572,1.25894545317573,1.31855152604664,1.29713059360865,0.810037216866722,1.24870065940104,1.32413959537828,1.12157208210607
1,02HaVi,03,5,0.833890316948046,64.4592647318262,66.2974678707932,57.8719444821412,65.4003300593709,51.0627163435481,53.4625559909496,27.6133074888207,68.0355677118488,53.5367260558559,0.386424384120581,0.440655635789421,0.44430608065722,0.344903415231871,0.72271854935651,0.694410972945274,0.650343281104895,0.305824418538879,0.619892716599167,0.596602007679454,0.680362895255245,0.685964623430735,0.532440831460206,1.11581475455091,1.07221223057704,1.00413987470533,0.472159159957527,0.957130659980242,0.779168252268718,1.02773742508715,0.847348463876262,0.838771007412354,1.32455528954508,1.05935375028727,1.20020038421283,0.831791344222528,1.00425393742808,0.7485648583241,0.743908156250544,1.31202580922436,1.32133921337147,1.2864139478198,0.980934291794536,1.20259331049579,1.37721963825414,1.15090391747932
1,02HaVi,03,6,0.774311708724076,62.7637340472074,67.4338977810713,56.8061803204091,66.9674027308768,49.2257980607697,53.0918257733048,30.5098331612782,66.9107121658579,53.5148994347159,0.515655441149485,0.584618006399543,0.437507057464042,0.335149027242714,0.668878449497553,0.632856754614474,0.609762074184277,0.326162824016985,0.585697420148185,0.841046953431884,0.953562623668601,0.713531488685942,0.546487312313912,1.09095499165027,1.03227223443787,0.994592709450764,0.531944922863438,0.955338555740509,1.35221093385102,1.22805382635327,0.897304160810174,0.993371530072682,1.12871321399755,1.06596735457139,1.11729961544367,0.917459266455537,1.01668160137597,0.82585618893627,0.856590053311682,1.46102271936146,1.45590040863222,1.27522253927374,0.930165061967972,1.29105513607319,1.43867081799752,1.15647806327783
1,02HaVi,03,7,0.757306857187637,65.284771310502,65.9198175300737,55.1959296482733,65.4926998492813,49.7200285349651,51.9796681708262,27.2241559068814,67.166718774251,54.6199769063862,0.361518901997368,0.410215697755647,0.532586849388179,0.364894189238146,0.761389291206468,0.7208464419859,0.637564034752682,0.368640935529776,0.503802718679088,0.5923079415994,0.672156660133621,0.872520684201068,0.597725882041195,1.24749459673251,1.1811600298042,1.0446660583649,0.603963187132272,0.825474658010042,0.667525070922039,0.851844614687812,0.985775760430498,0.924537419016974,1.56634507138889,1.30582533133546,1.23657138348583,1.13015677222284,0.796068654625166,0.822130069091886,0.724340596132783,1.33016966432227,1.46893758309281,1.34274259655987,1.08523031776757,1.24309046697298,1.40188194449228,0.92224786283573
1,02HaVi,03,8,0.762817378442682,60.2088767140536,64.183306429341,52.5730934261303,64.4576562979579,49.4943614898417,52.3420858895189,28.97594556202,67.6314569414803,53.3094137017466,0.551211573080086,0.687880517696471,0.487487345449258,0.495375590671375,0.700040903931475,0.690422325140017,0.632622263492767,0.366222139554077,0.576710332785137,0.929787920325959,1.16039907019117,0.822191205375798,0.835424540127636,1.18090975890996,1.16474826196287,1.06722430588318,0.617725113981817,0.972878259195806,1.17312491595361,1.39461096234332,0.941841834212163,1.34785672887823,1.2419791444637,1.30710657987665,1.26113813166724,1.19415451525446,0.932800069491799,0.870088112965846,0.895699483698049,1.44564546251136,1.46147794623672,1.44797376894156,1.1229421912856,1.36136076973811,1.52527354242421,1.2845266575415
1,02HaVi,03,9,0.723876677329752,60.4017581222496,63.4977017535382,55.1521345741584,65.8029699052918,47.8314733310144,52.4303587562488,30.0357757526525,70.7069912142652,50.7925544803682,0.369970817210921,0.410159030608166,0.465884741426689,0.448084351196729,0.738813125983285,0.674118730456503,0.561813714767629,0.324295161249353,0.542699498071489,0.655553934309443,0.726777959295505,0.825448804291471,0.793763211902016,1.30925070917245,1.19468437214922,0.995630331354331,0.574649683099463,0.961712826476521,0.677814400041307,0.865593759121806,0.903319961445443,1.02535709547223,1.40021231790932,1.22980454404839,1.05307755557029,1.16139050728708,0.882925751184405,0.945515661843481,0.832826772325568,1.525258089322,1.81862172732318,1.52805202873154,1.11222071327907,1.43072980596607,1.545281321757,1.07357121811384
1,02HaVi,03,10,0.745826546750084,61.7748967700688,63.1095324821553,53.5235328519696,65.2844873821007,48.7484649109676,49.773777436517,29.6980743831538,63.2532498440129,48.0853664078346,0.476088078079876,0.533233764517499,0.513324809841972,0.448256965606251,0.748911201417003,0.753792428425949,0.636891457851911,0.423906317109586,0.586124226384849,0.821455341549757,0.92008959293304,0.885675036205128,0.773305786327142,1.29227705354065,1.30079194979552,1.09903975484433,0.731449724816294,1.01137421113884,1.05170125058698,1.23275012943006,1.15434603097195,1.12045162557115,1.34221019399862,1.3080866126791,1.32610470453221,1.33113515382593,0.910612293658333,0.849595020355986,0.860305179560255,1.46985293601188,1.47497518606609,1.49034193622874,1.0298050904452,1.32223900263131,1.47916611792863,1.15599870541723
1,02HaVi,03,11,0.747328351313833,60.9137981106304,62.9614778657041,55.3195567495799,65.1728485333385,47.8324435380528,52.4960378611281,28.9185992391057,64.5731828543693,48.7313627121387,0.519459429177192,0.579931144838792,0.516332262563987,0.5829137759748,0.747391920305174,0.676554098993508,0.597761460452688,0.368780196348709,0.559997078655929,0.897245863833475,1.00170160308126,0.891800018980102,1.00669444023924,1.29104696027111,1.16876544687466,1.03262127259091,0.636982492901595,0.967322809363538,1.12775685203974,1.03896926988586,1.04027462553991,1.54050901194068,1.41038118628746,1.19814202978976,0.999125340464334,1.06606763500902,0.906905665825149,0.886847551118327,0.853785762654478,1.47823447152803,1.46566167873192,1.51269323696922,0.940398335249914,1.10058502865223,1.40140073777401,1.39395019389483
1,02HaVi,03,12,0.704619355139885,60.051846167934,62.5289572753298,54.9962811440511,64.3631344275509,47.352907540275,50.6589506374305,29.3249706629988,64.3531075812328,46.8258484496966,0.439371952619732,0.585735270870093,0.448931256476081,0.337691604364207,0.813770854892306,0.780008648407191,0.669433828270569,0.341720467142119,0.551769561321099,0.774279987723281,1.03223564812073,0.791061029446453,0.594948116244319,1.43417240371638,1.37473656182291,1.17982560223829,0.60217653216872,0.972404974256087,1.02199683410085,1.25955746952316,0.798466271444597,0.671799249606735,1.41809312884597,1.47529678235855,1.14478303474668,0.845605869803156,0.913487419629628,0.811873135270691,0.846797416971466,1.48893854317639,1.49964865623129,1.38742529769947,0.941325806108231,1.32735553317414,1.50244259876736,0.927356093427921
1,02HaVi,03,13,0.700116963624144,58.3924230582181,61.5667477638535,54.5462395026399,64.8312752033513,45.690204958307,50.8739274120465,28.0222464324968,65.985616941445,47.3464172854524,0.407216583101599,0.436265771142104,0.512117429524962,0.385670996502298,0.768946782333877,0.723143478129203,0.701161426453796,0.354388870250495,0.487384055213913,0.751341164099665,0.804956373062774,0.944879941122922,0.711444903342861,1.41887875872047,1.3344387849663,1.29385312428462,0.653843058825782,0.899305873811049,0.828152897145207,1.02102292632631,1.06018489607582,0.941189296531764,1.42551776853572,1.19337376159811,1.21874706274178,0.831839360383072,0.651819311341101,0.8495835821989,0.851911846332084,1.54899412780742,1.58904027089819,1.52152061103585,0.976241151044118,1.39346608371072,1.52012365255594,1.49218448295773
1,02HaVi,03,14,0.689317026089164,60.04317512479,60.6569308550129,54.9195229877867,67.9150962681424,48.9567543141306,50.7808425313941,29.3043234055179,63.4158078329155,46.6739051023922,0.467876565758789,0.620396905407723,0.592034642790805,0.460558815233643,0.765458155153967,0.721086275295307,0.632074261730139,0.460555206644932,0.518444492039735,0.86065785156206,1.14125771937516,1.0890845140501,0.847104550357084,1.40819361075417,1.32660950623793,1.16283117322608,0.847220724214726,0.953758590044047,1.07690352493846,1.23525653721414,1.27542443449202,1.28666437577889,1.54328101187923,1.2195287211837,1.07212833802772,1.39693870348553,0.810708414778757,0.86495063952598,0.875195007800312,1.57972815321232,1.59416339941706,1.50056712563794,0.99999003950581,1.39160429944732,1.65050742492589,1.27006883946547
1,02HaVi,03,15,0.683739889024531,61.6424434406686,63.2280830297483,58.3838276291211,63.9507526918587,50.163429272941,50.025187462018,28.5608512362142,63.3448158732479,47.6112743660872,0.403944213839525,0.507800811924365,0.530200584855288,0.51445088628529,0.789518192763407,0.659402109598426,0.666871172609349,0.40249231976653,0.48816228475617,0.733654261214522,0.922346458127914,0.96301408697275,0.934265934104914,1.43407226875757,1.19776455568871,1.21132881506979,0.731022474521884,0.886664833155334,0.63185319348518,0.979325763440154,1.15253590779419,1.32466448797451,1.53574066475401,1.21338166843047,1.09971571696941,1.04879982843252,0.726869242664582,1.5694877257395,1.52152533566349,1.54247977792971,1.60301483336544,1.50848701603118,1.14574233768937,1.16669677995559,1.37903512825323,0.817456075518672
1,02HaVi,03,16,0.660580393581162,58.0941341937013,64.2338505382534,56.5050357060519,67.0345111711212,44.6073376334749,49.5342495825185,25.877531129794,62.2571586700815,46.6632120455297,0.573550322171603,0.698946272612324,0.628647808815097,0.629716465358053,0.882804954057758,0.730609984745411,0.732381606466532,0.481507973190404,0.466263116586332,1.023849698887,1.24774007339377,1.12216068557596,1.12392255897174,1.57594081605736,1.30429946974929,1.30743469270012,0.859513564912328,0.832330914525907,1.11933380105838,1.29816985490566,1.37284264212904,1.44991329375779,1.82472420882074,1.21680518796842,1.32717564764814,1.28958410154194,0.729042733447793,0.776481182005292,0.815596276031346,1.4726367244928,1.45773573629239,1.41489539521624,0.990682887386063,1.26635116909349,1.61699004768418,1.19976237807295
1,02HaVi,v1mspost,1,1.02841659550972,63.4844835716445,67.0493051802825,57.8979332248517,70.4472977088742,49.8639745963597,51.034070406374,31.8712606313325,74.3981341407805,53.636034693465,0.329980142367295,0.336465630945082,0.365734667619352,0.17817972063932,0.717838330567282,0.761205500583521,0.595913824150474,0.318358703019114,0.64136801641478,0.48652161905008,0.496136932707844,0.539297470223747,0.262669165958538,1.05841075661246,1.12250471632709,0.878754017408771,0.46943813996412,0.94579298751635,0.600261621136345,0.743255490479551,0.84464974036488,0.400789286022326,1.17090103148472,1.58204719502936,1.19802663733149,1.12018082865706,1.12981485368985,0.90969625010875,0.919009751517593,1.29993195913928,1.29201548294176,1.31995598716829,1.0461390457483,1.13415163406187,1.31064248575945,1.16442051364061
1,02HaVi,v1mspost,2,1.09046943345291,63.0571548249173,68.4534644182963,55.0162997026447,68.5337571469084,47.2512161827856,46.1755606183422,30.5461645392676,69.270275062994,50.1579465871104,0.405365177853439,0.411491704188617,0.479713114428993,0.307487888177162,0.881942065204642,0.875252639481813,0.763266020330472,0.44522128783641,0.694468717317304,0.496715311440185,0.504297180888932,0.58788469790634,0.376826846688846,1.08066466264912,1.07262633498155,0.935402999075902,0.54561932026083,0.851102522764489,0.663869178149316,0.648979383239247,1.17286314928615,0.814140061728445,1.63466822092825,1.47020405439432,1.42939348862098,1.41592154115275,1.08282430417905,0.670835522943589,1.00427407513214,1.01451939377481,1.06621168329007,1.09508485401031,0.755126553594605,0.867359362361981,1.11045283197431,0.814269983940899
1,02HaVi,v1mspost,3,1.09418598283422,62.5133581562399,65.7862299560606,57.3450979250556,67.8083829339943,45.7090023153825,52.0942304146101,31.6803157385167,74.1200104792674,50.3856685075311,0.361963353152585,0.309642292188382,0.414398423669835,0.361884246142425,0.777378929942083,0.651046452107799,0.574938952801496,0.275504545642733,0.535617828885421,0.655755445778936,0.56105727681718,0.751126278872636,0.655881983134029,1.40891045629288,1.18009847058714,1.0420435538936,0.499295795063992,0.9708961462678,1.52527949133042,1.03211132428301,1.13066433714966,1.0210847382228,1.90402442622926,1.31640906260789,1.2453086511798,1.10364761167186,1.14840103360765,1.93456146281513,1.89777476030883,1.61046595719006,1.632351716909,1.6793828175816,1.2770573623229,1.68264239881633,1.68124543543002,1.42839506250702
1,02HaVi,v1mspre,1,1.03605665499499,63.9958670304496,74.9769772637668,60.2749635804901,76.2703836692268,55.2745211907713,59.270142773506,36.6450967623355,82.9345174936864,62.3048571789231,0.251655550276716,0.236568471148304,0.320641053396328,0.264329250709196,0.448951524658211,0.455981387952753,0.368523296755451,0.224177144349543,0.376113216469764,0.576931474474597,0.542390477568351,0.735143303757739,0.605981929610489,1.0293747720054,1.04561448159826,0.845011724014042,0.513957454341622,0.862449382896025,0.548751894367706,0.784131212508781,1,0.959615548240902,0.95081497104865,0.959353936259657,1,1,0.989166772264013,2.41780765045658,1.95031051399853,2.08348200904535,2.05368139476914,2.24133213778965,1.85019907541439,2.02434641509099,2.18173090923723,2.0052553965703
1,02HaVi,v1mspre,2,1.02382831496711,63.8922984370722,68.3996621678112,62.6042018887666,73.9301264741173,56.2132050832991,55.5627118519433,36.2426367605017,77.2141849668608,61.7252080204269,0.344913858620975,0.382801270868841,0.352207967380135,0.29434149608899,0.450463463702556,0.526704447713004,0.413625618246878,0.277045273714271,0.45439262894891,0.55847426429237,0.61987551987936,0.570341174520803,0.476557715868265,0.729392839041732,0.852948718372467,0.66982379646004,0.448606618028227,0.735849944134614,0.492965365034503,0.675257925050872,0.858132351535541,0.871219440734461,0.701140263807616,1,0.933154978174571,0.965844848274122,1,1.0083982713204,1.40095414420107,1.35997559519336,1.39629749090474,1.45543698776814,1.25706355734445,1.33482966739317,1.49501854078695,1.19280174185509
1,02HaVi,v1mspre,3,1.0641763005252,63.2892449985026,67.7863564817508,58.0017372606922,71.9661859721643,51.5362267804364,56.6110956388485,35.0176930716073,73.014835108518,61.1824999731202,0.330053078706367,0.317354396622768,0.39825000350244,0.306832501181379,0.560349698400374,0.549726769671405,0.423680792735271,0.284772880305151,0.442646584006626,0.492808603638471,0.474000294700487,0.59479987336785,0.458220134807353,0.836802549324521,0.821136868070151,0.632818631208152,0.425307614631614,0.661166300302742,0.915492284028944,0.6099735170978,0.891627856512765,1,1,0.999117417757515,0.756214408322836,0.907069081512709,0.968288174312825,1.61844892237263,0.849155980419074,1.29061464202438,1.33718201139203,1.35674030652644,1.07454204815849,1.28968329463703,1.32693719013115,1.13554530203011
1,03MaLu,01,1,0.78360155041715,63.5258236588749,69.9159891630483,63.6535984716919,67.4548738329851,61.1755179828519,65.3865108851595,48.4471219042582,80.8591663455165,68.299699246775,0.0409756906038261,0.20221056060204,0.244373168604767,0.346570587444225,0.310116533878232,0.284178147610411,0.329025521914564,0.222484044171309,0.2872393907385,0.151286982717725,0.746502210461318,0.902363943274448,1.27979718088124,1.14524559795494,1.0494395772478,1.21508901090228,0.821604554957585,1.06075536688572,0.140773836841654,0.97265454702029,0.815301357703508,0.796485875659618,0.881669285284723,0.796020892318082,0.877957904804762,1.15769061594965,0.822414520844633,3.81772266871271,3.79677047405547,3.46665700712244,3.54487853384282,3.44058316488232,3.40380042315071,3.29624582391019,3.39588514961353,3.43639272595087
1,03MaLu,01,2,0.857201978873835,61.9038911940224,69.4695867346658,62.351780468659,63.9237772624991,58.3470429435267,62.6009240818055,46.4012236445459,74.867759140434,64.8397789913876,0.0417093983769973,0.258858571053816,0.286906379440432,0.405594516667498,0.363649567514736,0.332334836245247,0.375436817794434,0.250534874983964,0.354847371702132,0.134270640400063,0.833321348539709,0.923787290878385,1.30592445526219,1.17092328250815,1.07008665826414,1.20889613086283,0.806716310004754,1.14258376904519,0.150828140067293,1.07121944551619,1.03547311251305,0.797904609398208,0.792669891580943,0.836130586935518,1.00350477458126,0.911773176082586,1.13468239365358,3.31538897360238,3.31212969085324,2.91170352453093,3.09887947669554,3.07699572109421,2.72871807875806,2.72592440783023,3.05837124824201,2.83394635037299
1,03MaLu,01,3,0.834254196443301,68.4642189381345,76.3805305114297,63.8637080477532,65.2294052087161,61.3358692217821,65.3674341685136,50.6276746764742,80.374533779461,68.2330263875127,0.035023814038325,0.201199512373536,0.26059625650219,0.388565357799228,0.323070017290172,0.338140619757807,0.331435523870928,0.204467884156337,0.30818446244869,0.121460949750056,0.697771359161012,0.90395818215572,1.34788413083692,1.1207240452364,1.17300325843278,1.14977886733933,0.709295350632068,1.06909321479198,0.146515519619244,0.828128457739968,0.914846610130078,0.922128386974052,0.775389760547011,1.05137736136432,0.977085364356063,0.85269216732424,0.966015117098571,3.59286132796334,3.50299905409605,3.28835393361512,3.29068197179821,3.18405782301267,3.32001525290515,3.05694693821594,3.14820603499308,3.07184638258772
1,03MaLu,01,4,0.807565895497461,64.1936617867364,72.040916453038,60.4342347891678,62.2478162343363,57.147431028771,62.366799939155,46.8554716847022,76.0174922962724,62.7938667717776,0.0486774256332931,0.229211223074617,0.339415281785128,0.454846977353023,0.396194717475448,0.366002644423061,0.381711769879908,0.254325107423784,0.385389430042193,0.148604335656427,0.699737393323178,1.03642260030488,1.38892216771379,1.20984543924703,1.11764909901651,1.16565665321612,0.776629790040864,1.17685381686026,0.208274438781674,1.0661303195862,1.42831043128356,1.04813419883767,0.900125875983943,0.991942938493994,1.03417469726642,1.17304862752795,0.970317561076866,3.17805494204091,3.07794772461526,2.84933077691295,2.90520457268541,2.54435297498829,2.5504059695303,2.55087158449507,2.84839954698341,2.69195291882053
1,03MaLu,01,5,0.835099544409047,63.7892959874314,71.7913219613832,60.252519145418,63.914470906144,60.7059415071215,63.9202707354547,46.6685747219985,76.1696849074753,63.9460414341885,0.0433344405476967,0.249121354475124,0.321566046138356,0.395127417518751,0.334246122840311,0.355399685266472,0.323149531375197,0.238987305199154,0.417476085138792,0.139200221867739,0.800457006932966,1.03338580932184,1.26984245048822,1.07422322264931,1.14221023907785,1.03858274087552,0.76806022168137,1.34168719456632,0.325830104568477,1.21342875020353,0.86244736272952,0.924463612130771,0.868392674270409,0.99853352287591,0.874116252446176,0.957749098454253,1.28873853347995,3.33867034750421,3.19433064905552,0.53335846636442,3.01367322002942,2.96431835539858,2.6369931682714,2.840465581891,3.01460444389038,2.91542910269822
1,03MaLu,01,6,0.839536606150318,55.6666745567958,72.9386410001203,60.7287394247558,61.5048385111566,58.5875424451142,62.2682605374028,46.7611356921398,76.5307473801512,63.2706415244093,0.0708540681932054,0.276566892596637,0.307029698210451,0.379921972848058,0.367587422586024,0.357777551571762,0.350845218955106,0.262941427255927,0.397034607251472,0.230727344862152,0.900889112258517,1.00030597726768,1.23778192826241,1.19763508384884,1.16566318397674,1.14311531981637,0.856683366022797,1.29357585758861,0.58156139222389,1.2358765889227,0.99061538806047,1.16922101309903,0.999186948139597,1.14111046447222,0.93759270221874,1.24372470354043,1.00501985891701,3.38289774746784,3.14822973222818,2.95220744172044,3.0909595618423,3.0285676689016,3.06581656020948,3.04113916971801,2.94755133030695,2.94289521889347
1,03MaLu,01,7,0.838044973888588,60.6349050892257,73.4798136639356,61.6248584213694,64.0283585239328,59.1635794453594,64.8592809052601,48.1181372804031,76.9683026416587,61.6544425442021,0.0627806636033622,0.252582294668724,0.336108348591582,0.383099497897964,0.314245039240307,0.336122616138728,0.345760275967827,0.268248506914263,0.413821088369058,0.226481117776183,0.911516636551295,1.21316404219501,1.38278910353186,1.1343085077833,1.21326874853469,1.24807676272438,0.968259185412884,1.49368369728363,0.599008110697067,1.1974303822186,1.27460948498673,1.03079712515142,0.786420997917457,1.0105137442092,0.98259213897166,1.39049287651435,1.25371788586084,3.73438901660746,3.62404051003854,3.30416952264258,3.37121671650724,3.39961865279713,3.41870847882804,3.35026446842453,3.38658169843455,3.29252938481886
1,03MaLu,01,8,0.823958433689308,58.5776015003934,71.4673061307716,58.1039808888082,63.2860311432583,59.765145139771,65.1755385983733,49.1525256513227,74.2077344471369,61.7041529368517,0.159655015499876,0.220746367545705,0.637414556026999,0.420158985244252,0.358882964585833,0.358255672403859,0.34469405910895,0.268027060289351,0.384192221934242,0.526847688748648,0.728439680835192,2.10408202744063,1.38681491234501,1.18463744145284,1.18256737007995,1.13783399586301,0.884719211383933,1.26814753008186,0.921513466113942,0.841285475719254,4.12425862550487,0.960408594002468,0.882208264772741,1.27651174894224,0.967077819444829,1.05282219818436,1.12715823206037,2.63651886665289,3.4140882277673,2.67563013990655,3.08629850906997,3.02670037839773,2.71520702355609,2.6989106597004,3.02111305364721,3.02763159918948
1,03MaLu,01,9,0.787336224572942,50.4270375851078,73.5089953497438,59.5669771112019,61.4058325580593,56.4675806725532,61.6940245036689,45.3493739381484,74.1060858694945,60.606885685965,0.0896262375391506,0.232381694750712,0.389960333842636,0.476692000242586,0.385395824122835,0.402796887103277,0.380693525089355,0.274995196017072,0.489059165344149,0.273463043110023,0.708988011557396,1.1901042372455,1.45474174429563,1.17617746038629,1.2292836807381,1.16185221195641,0.839224465667542,1.49239449407767,0.317607392770154,1.06239727655783,1.47050055328198,1.2136727509528,0.884152376234663,1.0437693335046,0.928672912490633,1.24587202876971,1.18733974685405,3.17526150466915,3.11659401444431,2.79206035820054,2.84560608340575,2.80556319325229,2.49918852207811,2.42701819680152,2.78181682816128,2.51920996715484
1,03MaLu,01,10,0.770932431781427,48.8355967536061,71.1343611238937,60.1953874876792,61.1587485033013,57.734315449608,60.6858762825613,46.820916247511,73.8476699970342,60.6878053862808,0.129409775017887,0.211554117122174,0.311792255798895,0.474579417086276,0.403426687147094,0.462901649896579,0.391888971371646,0.261648031190338,0.456971121507252,0.417007423532854,0.681792261095929,1.00507114405482,1.52981215262036,1.30052556547876,1.49226070643398,1.26333998880821,0.843439925641662,1.47296851721089,0.764628962391805,0.904038651428819,0.984216593781309,0.911886575103607,1.11093404757634,1.03008723786902,1.03166873149427,1.00078682776764,1.09137390291806,3.34844693111867,3.2404250041188,2.96664529258466,3.01506891503288,2.79157527296419,3.02996849117079,2.7966970022616,3.00575667994668,2.88050711803735
1,03MaLu,01,11,0.766244406378246,50.2251370185395,70.9714376421396,59.9083374997467,61.3682166537446,56.4681332181327,60.0154334950211,44.6554049144378,72.1995713863008,59.4619196315564,0.123291550819571,0.192212075166548,0.498889312939999,0.427173285460287,0.391818313822546,0.421938029675567,0.412234548034408,0.273663659649327,0.533669964542381,0.374167340319108,0.583523467804373,1.51353116363332,1.2970166558034,1.1897743191646,1.28122800698034,1.25178725967842,0.83095501085049,1.62036747907046,0.614451986871923,0.73415920304847,3.24211931494778,0.896012902614494,0.888663035878918,1.31343340682425,1.01316343213306,1.07679678316729,1.45642103978749,3.16129513876246,3.09378091899362,3.16129513876246,2.80882435003823,2.61140345912796,2.39023618747141,2.52293655046534,2.76785020286817,2.67752083297055
1,03MaLu,01,12,0.816131026396652,46.3930116184633,70.9575070894209,62.1885790663282,61.9792116332674,56.453305384126,58.8602849382602,44.1338644730647,68.6858646809412,58.5087770199706,0.184346189572185,0.25382458421054,0.363046503321406,0.458647018693385,0.379790971555402,0.410721514083195,0.409206048853549,0.315823936607846,0.464954834668356,0.541648823862291,0.745994374480866,1.06719777352322,1.34820104587083,1.11647502811344,1.20738656781279,1.20295633039573,0.928427275931589,1.3666372238031,0.841431410387553,0.982346782050804,1.49533745891819,1.0119902575279,1.01720372998981,1.05428034272096,0.989976842558825,1.28400804666628,0.920070636785541,3.0644603365548,2.98111483777134,2.64214543489785,2.54948758988161,2.46148591798176,2.41306171757126,2.53365660128587,2.6356267925349,2.90289112941592
1,03MaLu,01,13,0.766717450739782,42.2990248249922,66.9945336666959,56.1673643563725,61.2054728356268,58.0802319834638,59.5118250176802,46.2015651285075,70.18670368175,61.2015257610186,0.211178298833279,0.297686854300676,0.492578375148304,0.524959296510341,0.390312343856668,0.422266252592168,0.379780983968797,0.302075198887898,0.505895819348601,0.623396524554824,0.878925579597483,1.45409870619411,1.55015608249252,1.15268228220966,1.24705757033582,1.1215916045121,0.892058583249284,1.49382298172239,0.701072951705673,1.39769294013398,2.35138372688187,1.08775052178391,0.813427653941623,1.20833695537869,0.949750357617401,1.04743658437486,0.95771881160971,3.07796134458286,2.95690091805059,0.19765442716518,2.74178585244326,2.20120448627418,2.29898406155024,2.36230797696712,2.61234431945876,3.07377079135674
1,03MaLu,01,14,0.803129270013177,46.1455302747006,73.3911250900037,58.1475520645212,60.2140992255941,56.9254792013471,60.3929921710977,45.166740544169,71.5522309354525,59.4096729599398,0.124079344670523,0.23778837625319,0.348751085261518,0.429762112500688,0.370500590256614,0.44671004450639,0.390658778503907,0.285517806483842,0.486492204768801,0.383140365356347,0.734323906616046,1.07715082178811,1.32733907929225,1.14438014657926,1.37978140036299,1.20664451673137,0.881867333552379,1.50251657534166,0.48523805059594,0.975330667186701,0.8062175648648,0.945957518239312,0.954937599995492,1.20317325038259,0.985762907014018,1.05255597120281,1.0485377948718,3.21343694241213,3.06537160187934,2.80323076313732,2.8195272628815,2.79531532040444,2.31293892797685,2.38929966963527,2.68123982219521,2.80509322025094
1,03MaLu,01,15,0.730274267930539,49.7740252217632,70.1125257405698,55.2054544388403,61.9932834573402,56.1308364957948,57.5428653234128,44.6837249221499,71.6525068251855,59.9585831783513,0.17488284930543,0.241726481145934,1.00551454459882,0.515298727627534,0.370339376431523,0.446847756611643,0.394683549385132,0.30411855270673,0.442777365004617,0.601456138580564,0.831280864999415,3.45870735238539,1.77236801896247,1.27386909419421,1.5370478988745,1.35762590241444,1.04606153352103,1.52289302879645,0.799573234838979,1.08122702666084,5.05262243955269,1.18676394735701,0.82920157321297,1.25013133810349,1.07828980867025,1.33055462976994,1.22158396763002,2.76454809399726,3.42105551505597,3.32839950314769,3.18312977593469,2.75849518869672,2.63604025838576,2.64023073128614,3.14308747933111,2.98431511721691
1,03MaLu,01,16,0.762512251628284,47.7539148095169,68.1289880442944,55.4202175961612,60.8873523959609,57.21114038832,58.6633706807204,45.3427294061854,70.2055705580275,62.3772575296102,0.146951336158168,0.317055768941526,1.78284109258927,0.468710459452073,0.389347729760782,0.451905718529767,0.361857543231996,0.34303505505881,0.415622560768402,0.435631309038896,0.940043783445015,5.2847878877664,1.38978321848597,1.15455692034556,1.34007224864338,1.07304150860857,1.01719388487082,1.23229354025051,0.583359876999543,0.901123939141341,9.49739433769484,1.13734877129186,0.747330117304613,0.973345764264322,0.832219545005426,1.33852598985051,0.909411543353252,3.06119745630039,2.97086780286328,0.214416522720561,2.76040902269022,2.3315759772491,2.30503582134232,2.61653344066926,2.57695601519424,2.48010772697301
1,03MaLu,01,17,0.727309249390345,52.8464234229756,72.3678618988077,57.1400481304054,61.6576641243183,55.6240363011447,55.8079825320087,45.6223519899941,69.023991339025,62.7967613700571,0.131757045411419,0.205485461072254,0.801999532870906,0.478857599000378,0.410647604215022,0.518125831658885,0.35200214082443,0.286752791475422,0.374812087811729,0.385227299612593,0.600836729836707,2.34513495332872,1.40021157966672,1.20092351269887,1.51523896358928,1.02941006252913,0.838533387870594,1.09603785699661,0.572104353652737,0.54634832680385,4.72228206955462,0.927857355320438,0.917801797614791,1.23240160058138,0.807938417247205,0.922037769042757,0.961682154575557,2.28175924795307,2.52062109760105,2.13322722058912,2.15650810262109,2.22728198399827,2.13881463227679,2.1779265140905,2.53412400917959,2.49547774500653
1,03MaLu,01,18,0.675431846960486,48.6063583831034,70.4285046061239,59.0853304740323,60.2294663851412,55.3776728509967,56.5802566199725,44.8584640006669,70.9960113552052,61.2732797313664,0.150954760445586,0.239226218166985,0.393329264170189,0.507419285316294,0.410120406873713,0.484281581100043,0.385105924152215,0.325407438530779,0.347357707882868,0.388614119629262,0.616024436293546,1.01282559545657,1.30655411310774,1.05619136187095,1.24718491919165,0.991768871943313,0.837961424827904,0.894458980419285,0.414182425746767,0.696688648598175,1.15872692847002,0.901330088996653,0.759657157706064,1.16171962814547,0.733162450157864,1.07161156962974,0.683923008012078,2.68689531147991,2.27155684551681,2.20636919390825,2.16073783778226,2.16585972469436,1.59965840786574,1.71187429384904,2.23151300238584,1.86134026646581
1,03MaLu,02,1,0.763469621878431,64.2505798449262,74.0839472607595,61.6543950867846,66.3879280858767,58.8844143446805,64.3900510436882,44.3160889447908,79.6902226452408,80.191771740638,0.0713227713252298,0.142530980208386,0.239281977762104,0.385950261821677,0.310007657000567,0.442676051768629,0.39221892956411,0.196189598248896,0.0800497325365465,0.203926861690932,0.40750121900342,0.684103466118608,1.10343346299292,0.88639096677822,1.26571571709718,1.12145001376481,0.560926901571109,0.228857701713077,0.572364591414859,0.468155444522372,0.556495785790102,0.776905119905552,0.681123479787359,1.25224806537173,0.872281222854349,0.709176693196225,0.142519330363399,2.32180950532262,2.28968178931595,2.52621627817665,2.39910227136765,2.60816523494728,2.39351484249692,2.55648151789308,2.62027133083386,2.4596327508005
1,03MaLu,02,2,0.773727097952023,66.7233704941585,74.4523421713199,60.5018491719021,65.8848890410326,60.7520003580999,61.6914515477707,47.2707610259314,71.4772939995031,76.3202482453934,0.0328675482413741,0.173058977602141,0.302728040598709,0.398596176550397,0.343179834798423,0.319666176522457,0.360819875111429,0.226904257623599,0.0787933435099268,0.0971638115081311,0.511604356465635,0.895090541682717,1.17853854685515,1.01476519346279,0.94523205360352,1.06694213754382,0.670879186207828,0.232971782416239,0.110555872123414,0.511786527208167,0.966782679383202,0.926908074895919,0.801165436969118,0.990862982766384,0.891653183000183,0.783814615848263,0.17793637408457,3.03093351330699,3.05328312673947,2.76087568433118,2.7850877655497,2.49547402482047,2.44379054375785,2.47638373001356,2.79114078585433,2.70732973548253
1,03MaLu,02,3,0.817825269623589,62.9341402980521,70.6030396402084,58.5997291765176,65.3636543162434,60.2849000402382,64.9013345060123,47.9425464308775,73.4511129840639,78.521263890589,0.0330690985295174,0.17460714069893,0.329271373645432,0.425697729375765,0.35517968045037,0.312399482896689,0.336898497088964,0.226877968056387,0.0862220931769965,0.0895962316598475,0.473141339627398,0.892339632756564,1.15365059948328,0.96260490029184,0.846642307290928,0.913060582377395,0.614864423947814,0.233668894272012,0.115163908603752,0.440665707884779,1.03196109369754,0.97431375365775,0.772464265759285,0.699364694470255,0.705663322317669,0.751554861548555,0.171446428655756,2.81212758615336,2.59887244343323,2.50202294630269,2.50062607855561,2.54020399805607,2.5108697753675,2.27340225836473,2.54299773355022,2.43962952026667
1,03MaLu,02,4,0.814269852610168,65.5098156458283,73.4054150786323,57.1074945314316,64.7064598904576,57.3488051415485,58.5455935632958,45.5665971192503,72.3031351888517,77.674306087246,0.0361373633231728,0.248674474244496,0.394876466892464,0.451670601545276,0.431320472162692,0.392252190734919,0.394765431214555,0.266447252810593,0.0932138110684675,0.0915728575864427,0.630267937786702,1.00083448308622,1.14473349932886,1.0932815426042,0.994230527051699,1.00062200290807,0.675345537023777,0.236248635260663,0.126597956059017,0.694457969975807,1.2594300795011,0.927690618413073,0.929107820045982,0.908201081723472,0.811348144839423,0.868349265598985,0.225240520887864,2.65337659516825,2.00196414335806,2.35397830602318,2.37027525799842,2.05411438967882,2.03781743770358,1.96331708581678,2.32743755566351,2.33861260844653
1,03MaLu,02,5,0.797546695948669,59.6569171798795,67.7291996913905,55.2552948005418,62.2531168076521,58.586038319362,61.7280808125802,47.8273555133505,72.9023610549759,77.9187703059149,0.0482465479515401,0.260433632312486,0.397603378414546,0.451797808116835,0.390450026757761,0.322535484678693,0.357504326774215,0.29229342587994,0.0886100878465133,0.126707047327364,0.684082934506402,1.04440947264366,1.18672687519954,1.02567694338405,0.84724831094909,0.939128344684997,0.767807109719689,0.232758560951349,0.132387340250962,0.805190432578121,1.16275460969244,0.954505731931907,0.966162918122599,0.808873235010167,0.904593856988434,1.13254473533757,0.182832724035024,2.75160918963367,2.30926572061734,2.40890940732207,2.40425316027979,2.34325632402596,2.09880335430641,2.1742345563913,2.42800002019541,2.36979693216694
1,03MaLu,02,6,0.824367449566673,53.1753675008193,71.2205245751695,59.4090725843221,64.1341196216003,57.0324381613963,59.1038472505924,45.2983538101671,71.1217413295722,77.5964790986846,0.353658817993882,0.246865835621606,0.32447422916783,0.477141704667334,0.400295600718737,0.416375117996093,0.391945377088742,0.254547335293966,0.0821566852237528,0.878429729695711,0.613170015500347,0.806021450755395,1.18526803362878,0.994490665684023,1.03445403441903,0.973762302414784,0.632389076916473,0.204097038820117,1.32908130406872,0.827580894827215,0.857786028545019,0.926620554318535,0.766150167839465,1.00479327801499,0.769765493879109,0.904184960207148,0.168027101573028,2.52906191013502,1.84738159411962,2.30369765265452,1.96052935149103,2.08811159642834,1.95028552160555,1.96239186601566,2.35538243071306,2.18635923760269
1,03MaLu,02,7,0.787715362024343,42.3998597315282,72.7139459416907,58.1598954412012,62.4733350936842,55.8774406515934,60.3672044881295,46.8137990423501,72.8156008117037,76.8909495294487,0.539730696652602,0.199440030040215,0.406144476673171,0.491196964467895,0.379159117137374,0.321173574646457,0.330730052807429,0.2672261499682,0.0900153429608563,1.50622170666381,0.556575327753971,1.13360686113794,1.37095221679091,1.05831357675921,0.896448139056113,0.923142128684412,0.745888816862996,0.251244483021253,1.60919488346594,0.536427127272635,1.57395825095439,1.04860763824296,0.853242334543092,1.00058900474645,0.780386173846991,0.958015159714901,0.257052275479898,2.88847758591242,2.18492481210511,2.52343101101836,2.52436225228084,2.43403184981981,2.15885005675553,2.2626834575226,2.48571573988772,2.56114628214899
1,03MaLu,02,8,0.788101702989801,34.4240242659899,73.3643508499363,58.6249932410036,63.8301718075706,56.5364874527353,61.4800171960498,45.730827720642,74.3189201773819,76.7391526441157,0.931116980195692,0.23439553716357,0.332192470206026,0.441215843279327,0.394433630592113,0.412463913540084,0.357365464993434,0.270722422102744,0.100762160779289,2.46191451456362,0.619741325085453,0.878419945469491,1.16673723418639,1.04311214944159,1.09079248133311,0.9450860506602,0.715929495114587,0.266456901070276,1.68419203384661,0.740706885022459,1.1647928658191,0.993777882128616,0.848906387210683,0.992829659026891,0.791043698318956,1.13662743130748,0.205084770938042,2.16631679314989,2.02197327764716,2.37957269669909,2.45034758171979,2.1760949022646,2.04991073226059,2.04059824738945,2.47223192116698,2.36700084212305
